TimeOfDay	Time	Pulse	Skin Conductance	Heart Rate
12:20:58.153	0	-0.0503731	1.16023e-05	58.8235
12:20:58.163	0.01	-0.050257	0.000464576	58.8235
12:20:58.173	0.02	-0.0408888	0.00288005	58.8235
12:20:58.183	0.03	-0.0182928	0.00939253	58.8235
12:20:58.193	0.04	0.00049598	0.0224898	58.8235
12:20:58.203	0.05	0.0127973	0.0449529	58.8235
12:20:58.213	0.06	0.0258612	0.0798056	58.8235
12:20:58.223	0.07	0.0348552	0.130266	58.8235
12:20:58.233	0.08	0.0373747	0.199705	58.8235
12:20:58.243	0.09	0.0281667	0.291604	58.8235
12:20:58.253	0.1	0.00884064	0.409517	58.8235
12:20:58.263	0.11	-0.0127306	0.557042	58.8235
12:20:58.273	0.12	-0.0381199	0.737784	58.8235
12:20:58.283	0.13	-0.0657211	0.95533	58.8235
12:20:58.293	0.14	-0.0736669	1.21322	58.8235
12:20:58.303	0.15	-0.0661839	1.51494	58.8235
12:20:58.313	0.16	-0.054906	1.86387	58.8235
12:20:58.323	0.17	-0.0421683	2.26329	58.8235
12:20:58.333	0.18	-0.030152	2.71636	58.8235
12:20:58.343	0.19	-0.0274277	3.2261	58.8235
12:20:58.353	0.2	-0.0354057	3.79537	58.8235
12:20:58.363	0.21	-0.02842	4.4269	58.8235
12:20:58.373	0.22	-0.0109198	5.12322	58.8235
12:20:58.383	0.23	-0.00366989	5.88667	58.8235
12:20:58.393	0.24	-0.00261736	6.71945	58.8235
12:20:58.403	0.25	-0.000665934	7.62352	58.8235
12:20:58.413	0.26	0.00289109	8.60068	58.8235
12:20:58.423	0.27	0.00817825	9.65252	58.8235
12:20:58.433	0.28	0.00888366	10.7804	58.8235
12:20:58.443	0.29	-0.000189917	11.9856	58.8235
12:20:58.453	0.3	-0.00804315	13.2691	58.8235
12:20:58.463	0.31	-0.0071948	14.6316	58.8235
12:20:58.473	0.32	-0.00290837	16.0737	58.8235
12:20:58.483	0.33	0.00180379	17.596	58.8235
12:20:58.493	0.34	0.00503682	19.1985	58.8235
12:20:58.503	0.35	-0.00110478	20.8813	58.8235
12:20:58.513	0.36	-0.0124803	22.6443	58.8235
12:20:58.523	0.37	-0.0253419	24.4871	58.8235
12:20:58.533	0.38	-0.0324117	26.4092	58.8235
12:20:58.543	0.39	-0.0318428	28.4099	58.8235
12:20:58.553	0.4	-0.0208332	30.4885	58.8235
12:20:58.563	0.41	-0.00377161	32.6439	58.8235
12:20:58.573	0.42	0.0044746	34.875	58.8235
12:20:58.583	0.43	0.000596301	37.1805	58.8235
12:20:58.593	0.44	-0.00822469	39.559	58.8235
12:20:58.603	0.45	-0.0244942	42.009	58.8235
12:20:58.613	0.46	-0.0428235	44.5287	58.8235
12:20:58.623	0.47	-0.0553529	47.1164	58.8235
12:20:58.633	0.48	-0.0585302	49.7703	58.8235
12:20:58.643	0.49	-0.0661248	52.4883	58.8235
12:20:58.653	0.5	-0.0667241	55.2683	58.8235
12:20:58.663	0.51	-0.0515162	58.1082	58.8235
12:20:58.673	0.52	-0.0384122	61.0057	58.8235
12:20:58.683	0.53	-0.0177318	63.9585	58.8235
12:20:58.693	0.54	0.00244625	66.9643	58.8235
12:20:58.703	0.55	0.0153761	70.0205	58.8235
12:20:58.713	0.56	0.0175778	73.1247	58.8235
12:20:58.723	0.57	-0.0027669	76.2744	58.8235
12:20:58.733	0.58	-0.0265652	79.4669	58.8235
12:20:58.743	0.59	-0.0416218	82.6997	58.8235
12:20:58.753	0.6	-0.0541594	85.9701	58.8235
12:20:58.763	0.61	-0.0617537	89.2754	58.8235
12:20:58.773	0.62	-0.0638913	92.6131	58.8235
12:20:58.783	0.63	-0.057651	95.9803	58.8235
12:20:58.793	0.64	-0.0450362	99.3744	58.8235
12:20:58.803	0.65	-0.0189556	102.793	58.8235
12:20:58.813	0.66	0.0209771	106.233	58.8235
12:20:58.823	0.67	0.0611177	109.691	58.8235
12:20:58.833	0.68	0.100025	113.166	58.8235
12:20:58.843	0.69	0.12964	116.655	58.8235
12:20:58.853	0.7	0.144867	120.154	58.8235
12:20:58.863	0.71	0.150692	123.662	58.8235
12:20:58.873	0.72	0.153243	127.176	58.8235
12:20:58.883	0.73	0.142706	130.693	58.8235
12:20:58.893	0.74	0.115997	134.211	58.8235
12:20:58.903	0.75	0.0809525	137.727	58.8235
12:20:58.913	0.76	0.0379012	141.24	58.8235
12:20:58.923	0.77	-0.014529	144.746	58.8235
12:20:58.933	0.78	-0.0610935	148.243	58.8235
12:20:58.943	0.79	-0.0836331	151.73	58.8235
12:20:58.953	0.8	-0.0815369	155.203	58.8235
12:20:58.963	0.81	-0.0738152	158.662	58.8235
12:20:58.973	0.82	-0.0588554	162.103	58.8235
12:20:58.983	0.83	-0.0441015	165.525	58.8235
12:20:58.993	0.84	-0.0266127	168.926	58.8235
12:20:59.003	0.85	-0.0141915	172.304	58.8235
12:20:59.013	0.86	-0.00813455	175.657	58.8235
12:20:59.023	0.87	-0.00506329	178.984	58.8235
12:20:59.033	0.88	-0.00231402	182.282	58.8235
12:20:59.043	0.89	0.00863854	185.55	58.8235
12:20:59.053	0.9	0.0320261	188.787	58.8235
12:20:59.063	0.91	0.0532311	191.991	58.8235
12:20:59.073	0.92	0.0559883	195.161	58.8235
12:20:59.083	0.93	0.0406234	198.295	58.8235
12:20:59.093	0.94	0.0108581	201.392	58.8235
12:20:59.103	0.95	-0.0275315	204.451	58.8235
12:20:59.113	0.96	-0.04743	207.47	58.8235
12:20:59.123	0.97	-0.0463654	210.449	58.8235
12:20:59.133	0.98	-0.0354421	213.387	58.8235
12:20:59.143	0.99	-0.014844	216.282	58.8235
12:20:59.153	1	0.0120117	219.135	58.8235
12:20:59.163	1.01	0.0376342	221.943	58.8235
12:20:59.173	1.02	0.0588515	224.706	58.8235
12:20:59.183	1.03	0.076157	227.424	58.8235
12:20:59.193	1.04	0.0877566	230.096	58.8235
12:20:59.203	1.05	0.0907908	232.721	58.8235
12:20:59.213	1.06	0.0826659	235.299	58.8235
12:20:59.223	1.07	0.0614756	237.83	58.8235
12:20:59.233	1.08	0.0264325	240.313	58.8235
12:20:59.243	1.09	-0.0218858	242.747	58.8235
12:20:59.253	1.1	-0.0642442	245.133	58.8235
12:20:59.263	1.11	-0.0945375	247.47	58.8235
12:20:59.273	1.12	-0.114937	249.758	58.8235
12:20:59.283	1.13	-0.116887	251.997	58.8235
12:20:59.293	1.14	-0.0991304	254.187	58.8235
12:20:59.303	1.15	-0.0694617	256.328	58.8235
12:20:59.313	1.16	-0.0323705	258.42	58.8235
12:20:59.323	1.17	-0.00598335	260.463	58.8235
12:20:59.333	1.18	0.00208647	262.456	58.8235
12:20:59.343	1.19	-0.00433008	264.402	58.8235
12:20:59.353	1.2	-0.0179093	266.298	58.8235
12:20:59.363	1.21	-0.0298321	268.147	58.8235
12:20:59.373	1.22	-0.0399802	269.947	58.8235
12:20:59.383	1.23	-0.0507786	271.7	58.8235
12:20:59.393	1.24	-0.0575045	273.405	58.8235
12:20:59.403	1.25	-0.0458206	275.064	58.8235
12:20:59.413	1.26	-0.0447632	276.676	58.8235
12:20:59.423	1.27	-0.0488592	278.241	58.8235
12:20:59.433	1.28	-0.0540022	279.762	58.8235
12:20:59.443	1.29	-0.0556572	281.237	58.8235
12:20:59.453	1.3	-0.0526833	282.668	58.8235
12:20:59.463	1.31	-0.0541789	284.054	58.8235
12:20:59.473	1.32	-0.0549746	285.397	58.8235
12:20:59.483	1.33	-0.0466692	286.698	58.8235
12:20:59.493	1.34	-0.0292264	287.956	58.8235
12:20:59.503	1.35	-0.00420734	289.172	58.8235
12:20:59.513	1.36	0.0272632	290.348	58.8235
12:20:59.523	1.37	0.0504938	291.483	58.8235
12:20:59.533	1.38	0.0569467	292.579	58.8235
12:20:59.543	1.39	0.0570089	293.636	58.8235
12:20:59.553	1.4	0.0553092	294.654	58.8235
12:20:59.563	1.41	0.0471412	295.635	58.8235
12:20:59.573	1.42	0.025467	296.579	58.8235
12:20:59.583	1.43	-0.0105075	297.488	58.8235
12:20:59.593	1.44	-0.0460623	298.361	58.8235
12:20:59.603	1.45	-0.0691756	299.199	58.8235
12:20:59.613	1.46	-0.0839316	300.004	58.8235
12:20:59.623	1.47	-0.0848832	300.775	58.8235
12:20:59.633	1.48	-0.0595971	301.515	58.8235
12:20:59.643	1.49	-0.0144076	302.222	58.8235
12:20:59.653	1.5	0.0224442	302.899	58.8235
12:20:59.663	1.51	0.0380726	303.546	58.8235
12:20:59.673	1.52	0.0312511	304.164	58.8235
12:20:59.683	1.53	0.00691022	304.753	58.8235
12:20:59.693	1.54	-0.0200247	305.315	58.8235
12:20:59.703	1.55	-0.0308525	305.849	58.8235
12:20:59.713	1.56	-0.031289	306.358	58.8235
12:20:59.723	1.57	-0.0337005	306.84	58.8235
12:20:59.733	1.58	-0.0277217	307.298	58.8235
12:20:59.743	1.59	-0.0100115	307.732	58.8235
12:20:59.753	1.6	0.00038602	308.143	58.8235
12:20:59.763	1.61	0.00744613	308.531	58.8235
12:20:59.773	1.62	0.0166222	308.898	58.8235
12:20:59.783	1.63	0.0187852	309.243	58.8235
12:20:59.793	1.64	0.0156146	309.568	58.8235
12:20:59.803	1.65	0.0128758	309.873	58.8235
12:20:59.813	1.66	0.0167541	310.158	58.8235
12:20:59.823	1.67	0.0325165	310.426	58.8235
12:20:59.833	1.68	0.0502158	310.676	58.8235
12:20:59.843	1.69	0.0693929	310.908	58.8235
12:20:59.853	1.7	0.087069	311.124	58.8235
12:20:59.863	1.71	0.099897	311.324	58.8235
12:20:59.873	1.72	0.111638	311.51	58.8235
12:20:59.883	1.73	0.122992	311.68	58.8235
12:20:59.893	1.74	0.134688	311.836	56.6038
12:20:59.903	1.75	0.130858	311.979	56.6038
12:20:59.913	1.76	0.105442	312.109	56.6038
12:20:59.923	1.77	0.0700659	312.227	56.6038
12:20:59.933	1.78	0.023196	312.333	56.6038
12:20:59.943	1.79	-0.0321468	312.427	56.6038
12:20:59.953	1.8	-0.0854284	312.511	56.6038
12:20:59.963	1.81	-0.117937	312.585	56.6038
12:20:59.973	1.82	-0.122446	312.648	56.6038
12:20:59.983	1.83	-0.110618	312.703	56.6038
12:20:59.993	1.84	-0.0875698	312.749	56.6038
12:21:00.003	1.85	-0.0528865	312.786	56.6038
12:21:00.013	1.86	-0.0140498	312.816	56.6038
12:21:00.023	1.87	0.022183	312.838	56.6038
12:21:00.033	1.88	0.0469038	312.853	56.6038
12:21:00.043	1.89	0.0575628	312.861	56.6038
12:21:00.053	1.9	0.0484556	312.863	56.6038
12:21:00.063	1.91	0.0285403	312.859	56.6038
12:21:00.073	1.92	0.0279924	312.85	56.6038
12:21:00.083	1.93	0.0463504	312.835	56.6038
12:21:00.093	1.94	0.0645843	312.816	56.6038
12:21:00.103	1.95	0.0691039	312.792	56.6038
12:21:00.113	1.96	0.0609887	312.764	56.6038
12:21:00.123	1.97	0.0426313	312.732	56.6038
12:21:00.133	1.98	0.0243137	312.697	56.6038
12:21:00.143	1.99	0.0153639	312.658	56.6038
12:21:00.153	2	0.00837994	312.617	56.6038
12:21:00.162	2.01	-0.00832812	312.572	56.6038
12:21:00.173	2.02	-0.0232203	312.526	56.6038
12:21:00.182	2.03	-0.0248001	312.477	56.6038
12:21:00.193	2.04	-0.00986398	312.425	56.6038
12:21:00.203	2.05	0.0176383	312.373	56.6038
12:21:00.213	2.06	0.032077	312.318	56.6038
12:21:00.223	2.07	0.0288176	312.262	56.6038
12:21:00.233	2.08	0.0179113	312.205	56.6038
12:21:00.243	2.09	0.00973436	312.147	56.6038
12:21:00.253	2.1	-0.000452474	312.089	56.6038
12:21:00.263	2.11	-0.0231979	312.029	56.6038
12:21:00.273	2.12	-0.0485338	311.969	56.6038
12:21:00.283	2.13	-0.0705679	311.909	56.6038
12:21:00.293	2.14	-0.0867509	311.849	56.6038
12:21:00.303	2.15	-0.0967873	311.788	56.6038
12:21:00.313	2.16	-0.0951519	311.728	56.6038
12:21:00.323	2.17	-0.0860451	311.668	56.6038
12:21:00.333	2.18	-0.0703849	311.608	56.6038
12:21:00.343	2.19	-0.0531246	311.548	56.6038
12:21:00.353	2.2	-0.0355578	311.489	56.6038
12:21:00.363	2.21	-0.0153093	311.431	56.6038
12:21:00.373	2.22	-0.00244484	311.373	56.6038
12:21:00.383	2.23	0.00061158	311.316	56.6038
12:21:00.393	2.24	0.00771229	311.26	56.6038
12:21:00.403	2.25	0.0182485	311.205	56.6038
12:21:00.413	2.26	0.0204431	311.151	56.6038
12:21:00.423	2.27	0.00646655	311.098	56.6038
12:21:00.433	2.28	-0.0155984	311.045	56.6038
12:21:00.443	2.29	-0.0348084	310.994	56.6038
12:21:00.453	2.3	-0.0452993	310.945	56.6038
12:21:00.463	2.31	-0.0532447	310.896	56.6038
12:21:00.473	2.32	-0.060749	310.848	56.6038
12:21:00.483	2.33	-0.0557596	310.802	56.6038
12:21:00.493	2.34	-0.0391231	310.757	56.6038
12:21:00.503	2.35	-0.017581	310.714	56.6038
12:21:00.513	2.36	-0.00141318	310.671	56.6038
12:21:00.523	2.37	0.00349565	310.631	56.6038
12:21:00.533	2.38	0.00114678	310.591	56.6038
12:21:00.543	2.39	-0.00577084	310.553	56.6038
12:21:00.553	2.4	-0.0169731	310.516	56.6038
12:21:00.563	2.41	-0.0336277	310.48	56.6038
12:21:00.573	2.42	-0.0436081	310.446	56.6038
12:21:00.583	2.43	-0.0415613	310.413	56.6038
12:21:00.593	2.44	-0.0270191	310.382	56.6038
12:21:00.603	2.45	0.000223734	310.352	56.6038
12:21:00.613	2.46	0.0187789	310.323	56.6038
12:21:00.623	2.47	0.0210485	310.295	56.6038
12:21:00.633	2.48	0.0099773	310.269	56.6038
12:21:00.643	2.49	-0.014908	310.244	56.6038
12:21:00.653	2.5	-0.0518898	310.22	56.6038
12:21:00.663	2.51	-0.0844369	310.198	56.6038
12:21:00.673	2.52	-0.0995467	310.177	56.6038
12:21:00.683	2.53	-0.0946468	310.157	56.6038
12:21:00.693	2.54	-0.0692987	310.138	56.6038
12:21:00.703	2.55	-0.0322046	310.12	56.6038
12:21:00.713	2.56	0.0073766	310.104	56.6038
12:21:00.723	2.57	0.0345497	310.088	56.6038
12:21:00.733	2.58	0.0349979	310.074	56.6038
12:21:00.743	2.59	0.0130685	310.061	56.6038
12:21:00.753	2.6	-0.0128195	310.048	56.6038
12:21:00.763	2.61	-0.0330483	310.037	56.6038
12:21:00.773	2.62	-0.0516521	310.027	56.6038
12:21:00.783	2.63	-0.0658401	310.017	56.6038
12:21:00.793	2.64	-0.0685717	310.009	56.6038
12:21:00.803	2.65	-0.0806232	310.001	56.6038
12:21:00.813	2.66	-0.101532	309.995	56.6038
12:21:00.823	2.67	-0.111197	309.989	56.6038
12:21:00.833	2.68	-0.102194	309.984	56.6038
12:21:00.843	2.69	-0.084172	309.979	56.6038
12:21:00.853	2.7	-0.0585748	309.976	56.6038
12:21:00.863	2.71	-0.0272163	309.973	56.6038
12:21:00.873	2.72	-0.000276195	309.971	56.6038
12:21:00.883	2.73	0.0137877	309.969	56.6038
12:21:00.893	2.74	0.0206171	309.968	56.6038
12:21:00.903	2.75	0.0341296	309.968	56.6038
12:21:00.913	2.76	0.061025	309.968	56.6038
12:21:00.923	2.77	0.102258	309.969	56.6038
12:21:00.933	2.78	0.145823	309.97	56.6038
12:21:00.943	2.79	0.177655	309.972	56.6038
12:21:00.953	2.8	0.189205	309.974	14.8515
12:21:00.963	2.81	0.179197	309.976	14.8515
12:21:00.973	2.82	0.159129	309.979	14.8515
12:21:00.983	2.83	0.129159	309.983	14.8515
12:21:00.993	2.84	0.0961953	309.986	14.8515
12:21:01.003	2.85	0.0635237	309.991	14.8515
12:21:01.013	2.86	0.0254287	309.995	14.8515
12:21:01.023	2.87	-0.0149683	310	14.8515
12:21:01.033	2.88	-0.0488221	310.005	14.8515
12:21:01.043	2.89	-0.0600289	310.01	14.8515
12:21:01.053	2.9	-0.0507101	310.015	14.8515
12:21:01.063	2.91	-0.0317927	310.021	14.8515
12:21:01.073	2.92	-0.0124491	310.027	14.8515
12:21:01.083	2.93	0.00254063	310.033	14.8515
12:21:01.093	2.94	0.0213839	310.039	14.8515
12:21:01.103	2.95	0.0442617	310.045	14.8515
12:21:01.113	2.96	0.0527311	310.052	14.8515
12:21:01.123	2.97	0.0393284	310.058	14.8515
12:21:01.133	2.98	0.0174839	310.065	14.8515
12:21:01.143	2.99	-0.00492926	310.071	14.8515
12:21:01.153	3	-0.0267613	310.078	14.8515
12:21:01.163	3.01	-0.0380971	310.085	14.8515
12:21:01.173	3.02	-0.0308348	310.092	14.8515
12:21:01.183	3.03	-0.0057799	310.099	14.8515
12:21:01.193	3.04	0.0280558	310.106	14.8515
12:21:01.203	3.05	0.0541909	310.113	14.8515
12:21:01.213	3.06	0.0620282	310.12	14.8515
12:21:01.223	3.07	0.0558579	310.126	14.8515
12:21:01.233	3.08	0.0364378	310.133	14.8515
12:21:01.243	3.09	0.0136036	310.14	14.8515
12:21:01.253	3.1	-0.00489791	310.147	14.8515
12:21:01.263	3.11	-0.0158229	310.154	14.8515
12:21:01.273	3.12	-0.0192873	310.16	14.8515
12:21:01.283	3.13	-0.0173075	310.167	14.8515
12:21:01.293	3.14	-0.00654767	310.173	14.8515
12:21:01.303	3.15	0.00777965	310.18	14.8515
12:21:01.313	3.16	0.0242048	310.186	14.8515
12:21:01.323	3.17	0.037544	310.192	14.8515
12:21:01.333	3.18	0.038902	310.199	14.8515
12:21:01.343	3.19	0.0348615	310.205	14.8515
12:21:01.353	3.2	0.0292705	310.211	14.8515
12:21:01.363	3.21	0.0224535	310.217	14.8515
12:21:01.373	3.22	0.0188738	310.222	14.8515
12:21:01.383	3.23	0.0141821	310.228	14.8515
12:21:01.393	3.24	0.00748443	310.233	14.8515
12:21:01.403	3.25	0.00169552	310.239	14.8515
12:21:01.413	3.26	-0.00620073	310.244	14.8515
12:21:01.423	3.27	-0.0223539	310.249	14.8515
12:21:01.433	3.28	-0.0495827	310.254	14.8515
12:21:01.443	3.29	-0.0791248	310.259	14.8515
12:21:01.453	3.3	-0.100322	310.264	14.8515
12:21:01.463	3.31	-0.10193	310.269	14.8515
12:21:01.473	3.32	-0.0843299	310.273	14.8515
12:21:01.483	3.33	-0.0585869	310.278	14.8515
12:21:01.493	3.34	-0.019775	310.282	14.8515
12:21:01.503	3.35	0.0313513	310.286	14.8515
12:21:01.513	3.36	0.0655667	310.29	14.8515
12:21:01.523	3.37	0.0705772	310.294	14.8515
12:21:01.533	3.38	0.0558579	310.298	14.8515
12:21:01.543	3.39	0.0306254	310.301	14.8515
12:21:01.553	3.4	0.00190871	310.305	14.8515
12:21:01.563	3.41	-0.0135376	310.308	14.8515
12:21:01.573	3.42	-0.00718129	310.311	14.8515
12:21:01.583	3.43	0.00500001	310.314	14.8515
12:21:01.593	3.44	0.00309368	310.317	14.8515
12:21:01.603	3.45	-0.0253338	310.32	14.8515
12:21:01.613	3.46	-0.0683444	310.323	14.8515
12:21:01.623	3.47	-0.100406	310.326	14.8515
12:21:01.633	3.48	-0.112267	310.328	14.8515
12:21:01.643	3.49	-0.0993248	310.331	14.8515
12:21:01.653	3.5	-0.0606519	310.333	14.8515
12:21:01.663	3.51	-0.00760781	310.335	14.8515
12:21:01.673	3.52	0.0389343	310.337	14.8515
12:21:01.683	3.53	0.0576584	310.339	14.8515
12:21:01.693	3.54	0.0434046	310.341	14.8515
12:21:01.703	3.55	0.014141	310.343	14.8515
12:21:01.713	3.56	-0.014253	310.344	14.8515
12:21:01.723	3.57	-0.0348653	310.346	14.8515
12:21:01.733	3.58	-0.0375878	310.348	14.8515
12:21:01.743	3.59	-0.0202192	310.349	14.8515
12:21:01.753	3.6	-0.00260909	310.35	14.8515
12:21:01.763	3.61	-0.00315828	310.351	14.8515
12:21:01.773	3.62	-0.015141	310.353	14.8515
12:21:01.783	3.63	-0.0342107	310.354	14.8515
12:21:01.793	3.64	-0.0532766	310.355	14.8515
12:21:01.803	3.65	-0.055124	310.355	14.8515
12:21:01.813	3.66	-0.037748	310.356	14.8515
12:21:01.823	3.67	-0.0048348	310.357	14.8515
12:21:01.833	3.68	0.0283769	310.358	14.8515
12:21:01.843	3.69	0.0427636	310.358	14.8515
12:21:01.853	3.7	0.0329	310.359	14.8515
12:21:01.863	3.71	0.00915664	310.359	14.8515
12:21:01.873	3.72	-0.0120697	310.36	14.8515
12:21:01.883	3.73	-0.025315	310.36	14.8515
12:21:01.893	3.74	-0.0279926	310.361	14.8515
12:21:01.903	3.75	-0.0147135	310.361	14.8515
12:21:01.913	3.76	0.0131908	310.361	14.8515
12:21:01.923	3.77	0.0421535	310.361	14.8515
12:21:01.933	3.78	0.0743621	310.361	14.8515
12:21:01.943	3.79	0.101026	310.362	14.8515
12:21:01.953	3.8	0.115713	310.362	14.8515
12:21:01.963	3.81	0.122866	310.362	14.8515
12:21:01.973	3.82	0.125121	310.362	14.8515
12:21:01.983	3.83	0.116394	310.362	14.8515
12:21:01.993	3.84	0.099255	310.361	14.8515
12:21:02.003	3.85	0.062574	310.361	14.8515
12:21:02.013	3.86	0.0267007	310.361	14.8515
12:21:02.023	3.87	0.00479523	310.361	14.8515
12:21:02.033	3.88	-0.0096693	310.361	14.8515
12:21:02.043	3.89	-0.0185864	310.361	14.8515
12:21:02.053	3.9	-0.0243865	310.36	14.8515
12:21:02.063	3.91	-0.0271669	310.36	14.8515
12:21:02.073	3.92	-0.0302303	310.36	14.8515
12:21:02.083	3.93	-0.0317842	310.359	14.8515
12:21:02.093	3.94	-0.0296478	310.359	14.8515
12:21:02.103	3.95	-0.0210694	310.359	14.8515
12:21:02.113	3.96	-0.00369063	310.358	14.8515
12:21:02.123	3.97	0.0125597	310.358	14.8515
12:21:02.133	3.98	0.020924	310.358	14.8515
12:21:02.143	3.99	0.0212229	310.357	14.8515
12:21:02.153	4	0.0132513	310.357	14.8515
12:21:02.163	4.01	-0.00513541	310.357	14.8515
12:21:02.172	4.02	-0.0161907	310.356	14.8515
12:21:02.183	4.03	-0.0183866	310.356	14.8515
12:21:02.193	4.04	-0.0225151	310.355	14.8515
12:21:02.203	4.05	-0.0220227	310.355	14.8515
12:21:02.212	4.06	-0.0214405	310.355	14.8515
12:21:02.223	4.07	-0.0157693	310.354	14.8515
12:21:02.233	4.08	-0.00263128	310.354	14.8515
12:21:02.243	4.09	0.0137941	310.354	14.8515
12:21:02.253	4.1	0.0331002	310.353	14.8515
12:21:02.263	4.11	0.0538609	310.353	14.8515
12:21:02.273	4.12	0.0635445	310.353	14.8515
12:21:02.283	4.13	0.0544526	310.352	14.8515
12:21:02.293	4.14	0.0332118	310.352	14.8515
12:21:02.303	4.15	0.0163293	310.352	14.8515
12:21:02.313	4.16	0.00576807	310.351	14.8515
12:21:02.323	4.17	-0.00972354	310.351	14.8515
12:21:02.333	4.18	-0.0192002	310.351	14.8515
12:21:02.343	4.19	-0.0476224	310.35	14.8515
12:21:02.353	4.2	-0.0766461	310.35	14.8515
12:21:02.363	4.21	-0.0868352	310.35	14.8515
12:21:02.373	4.22	-0.0860956	310.35	14.8515
12:21:02.383	4.23	-0.0803703	310.349	14.8515
12:21:02.393	4.24	-0.0681546	310.349	14.8515
12:21:02.403	4.25	-0.0583096	310.349	14.8515
12:21:02.413	4.26	-0.0559447	310.349	14.8515
12:21:02.423	4.27	-0.047991	310.348	14.8515
12:21:02.433	4.28	-0.0348986	310.348	14.8515
12:21:02.443	4.29	-0.0155896	310.348	14.8515
12:21:02.453	4.3	0.00168202	310.348	14.8515
12:21:02.463	4.31	0.0139488	310.348	14.8515
12:21:02.473	4.32	0.0269111	310.348	14.8515
12:21:02.483	4.33	0.0336836	310.348	14.8515
12:21:02.493	4.34	0.0397161	310.348	14.8515
12:21:02.503	4.35	0.048287	310.348	14.8515
12:21:02.513	4.36	0.0553846	310.348	14.8515
12:21:02.523	4.37	0.0576164	310.348	14.8515
12:21:02.533	4.38	0.0508555	310.348	14.8515
12:21:02.543	4.39	0.0361552	310.348	14.8515
12:21:02.553	4.4	0.0141861	310.348	14.8515
12:21:02.563	4.41	-0.02053	310.348	14.8515
12:21:02.573	4.42	-0.0575823	310.348	14.8515
12:21:02.583	4.43	-0.0822226	310.348	14.8515
12:21:02.593	4.44	-0.0831575	310.348	14.8515
12:21:02.603	4.45	-0.0572118	310.348	14.8515
12:21:02.613	4.46	-0.010898	310.349	14.8515
12:21:02.623	4.47	0.0265643	310.349	14.8515
12:21:02.633	4.48	0.0251267	310.349	14.8515
12:21:02.643	4.49	-0.000687293	310.349	14.8515
12:21:02.653	4.5	-0.0387818	310.35	14.8515
12:21:02.663	4.51	-0.077196	310.35	14.8515
12:21:02.673	4.52	-0.0978663	310.35	14.8515
12:21:02.683	4.53	-0.101373	310.351	14.8515
12:21:02.693	4.54	-0.0902169	310.351	14.8515
12:21:02.703	4.55	-0.0622779	310.352	14.8515
12:21:02.713	4.56	-0.0205765	310.352	14.8515
12:21:02.723	4.57	0.0240547	310.353	14.8515
12:21:02.733	4.58	0.0435959	310.353	14.8515
12:21:02.743	4.59	0.0398802	310.354	14.8515
12:21:02.753	4.6	0.0203447	310.355	14.8515
12:21:02.763	4.61	-0.0117528	310.355	14.8515
12:21:02.773	4.62	-0.0396234	310.356	14.8515
12:21:02.783	4.63	-0.0505912	310.357	14.8515
12:21:02.793	4.64	-0.0449773	310.358	14.8515
12:21:02.803	4.65	-0.0314091	310.358	14.8515
12:21:02.813	4.66	-0.0323488	310.359	14.8515
12:21:02.823	4.67	-0.0459713	310.36	14.8515
12:21:02.833	4.68	-0.0507166	310.361	14.8515
12:21:02.843	4.69	-0.0447983	310.362	14.8515
12:21:02.853	4.7	-0.0256545	310.363	14.8515
12:21:02.863	4.71	-0.00130687	310.364	14.8515
12:21:02.873	4.72	0.0151694	310.365	14.8515
12:21:02.883	4.73	0.0135578	310.366	14.8515
12:21:02.893	4.74	0.00205739	310.367	14.8515
12:21:02.903	4.75	-0.0187205	310.368	14.8515
12:21:02.913	4.76	-0.035497	310.369	14.8515
12:21:02.923	4.77	-0.0352932	310.37	14.8515
12:21:02.933	4.78	-0.0213551	310.372	14.8515
12:21:02.943	4.79	0.00158442	310.373	14.8515
12:21:02.953	4.8	0.033596	310.374	14.8515
12:21:02.963	4.81	0.0654551	310.375	14.8515
12:21:02.973	4.82	0.0794011	310.376	14.8515
12:21:02.983	4.83	0.0792315	310.378	14.8515
12:21:02.993	4.84	0.0706699	310.379	14.8515
12:21:03.003	4.85	0.059666	310.38	14.8515
12:21:03.013	4.86	0.048796	310.382	14.8515
12:21:03.023	4.87	0.0560888	310.383	14.8515
12:21:03.033	4.88	0.0715393	310.384	14.8515
12:21:03.043	4.89	0.0840339	310.386	14.8515
12:21:03.053	4.9	0.0849212	310.387	14.8515
12:21:03.063	4.91	0.0641696	310.389	14.8515
12:21:03.073	4.92	0.0222952	310.39	14.8515
12:21:03.083	4.93	-0.0166203	310.391	14.8515
12:21:03.093	4.94	-0.0339651	310.393	14.8515
12:21:03.103	4.95	-0.0391392	310.394	14.8515
12:21:03.113	4.96	-0.0360794	310.396	14.8515
12:21:03.123	4.97	-0.0177415	310.397	14.8515
12:21:03.133	4.98	0.00711185	310.398	14.8515
12:21:03.143	4.99	0.0205759	310.4	14.8515
12:21:03.153	5	0.0261448	310.401	14.8515
12:21:03.163	5.01	0.028956	310.403	14.8515
12:21:03.173	5.02	0.0219971	310.404	14.8515
12:21:03.183	5.03	0.00759479	310.406	14.8515
12:21:03.193	5.04	-0.00745166	310.407	14.8515
12:21:03.203	5.05	-0.0196904	310.409	14.8515
12:21:03.213	5.06	-0.0196196	310.41	14.8515
12:21:03.223	5.07	-0.00542633	310.411	14.8515
12:21:03.233	5.08	0.0122394	310.413	14.8515
12:21:03.243	5.09	0.0242348	310.414	14.8515
12:21:03.253	5.1	0.0246741	310.416	14.8515
12:21:03.263	5.11	0.0139421	310.417	14.8515
12:21:03.273	5.12	-0.00652982	310.418	14.8515
12:21:03.283	5.13	-0.0244824	310.42	14.8515
12:21:03.293	5.14	-0.0249743	310.421	14.8515
12:21:03.303	5.15	-0.00181619	310.423	14.8515
12:21:03.313	5.16	0.033215	310.424	14.8515
12:21:03.323	5.17	0.0606157	310.425	14.8515
12:21:03.333	5.18	0.0679747	310.426	14.8515
12:21:03.343	5.19	0.0592614	310.428	14.8515
12:21:03.353	5.2	0.0429276	310.429	14.8515
12:21:03.363	5.21	0.0270272	310.43	14.8515
12:21:03.373	5.22	0.0117641	310.432	14.8515
12:21:03.383	5.23	-0.000883785	310.433	14.8515
12:21:03.393	5.24	-0.00355118	310.434	14.8515
12:21:03.403	5.25	0.00217671	310.435	14.8515
12:21:03.413	5.26	0.0104453	310.436	14.8515
12:21:03.423	5.27	0.0129094	310.438	14.8515
12:21:03.433	5.28	0.00560803	310.439	14.8515
12:21:03.443	5.29	-0.0245344	310.44	14.8515
12:21:03.453	5.3	-0.0739464	310.441	14.8515
12:21:03.463	5.31	-0.101303	310.442	14.8515
12:21:03.473	5.32	-0.0993924	310.443	14.8515
12:21:03.483	5.33	-0.0826411	310.444	14.8515
12:21:03.493	5.34	-0.0609261	310.445	14.8515
12:21:03.503	5.35	-0.0412382	310.446	14.8515
12:21:03.513	5.36	-0.0232484	310.447	14.8515
12:21:03.523	5.37	-0.00856056	310.448	14.8515
12:21:03.533	5.38	0.0023867	310.449	14.8515
12:21:03.543	5.39	0.00920462	310.45	14.8515
12:21:03.553	5.4	0.007907	310.451	14.8515
12:21:03.563	5.41	0.000187391	310.452	14.8515
12:21:03.573	5.42	-0.0195899	310.453	14.8515
12:21:03.583	5.43	-0.0400459	310.454	14.8515
12:21:03.593	5.44	-0.0508217	310.455	14.8515
12:21:03.603	5.45	-0.0550285	310.455	14.8515
12:21:03.613	5.46	-0.0509451	310.456	14.8515
12:21:03.623	5.47	-0.0429045	310.457	14.8515
12:21:03.633	5.48	-0.0383805	310.458	14.8515
12:21:03.643	5.49	-0.0316304	310.459	14.8515
12:21:03.653	5.5	-0.0180913	310.459	14.8515
12:21:03.663	5.51	-0.00480191	310.46	14.8515
12:21:03.673	5.52	0.00428245	310.461	14.8515
12:21:03.683	5.53	0.00317503	310.461	14.8515
12:21:03.693	5.54	-0.00203973	310.462	14.8515
12:21:03.703	5.55	0.00276981	310.463	14.8515
12:21:03.713	5.56	0.0164824	310.463	14.8515
12:21:03.723	5.57	0.0293457	310.464	14.8515
12:21:03.733	5.58	0.044431	310.464	14.8515
12:21:03.743	5.59	0.0600495	310.465	14.8515
12:21:03.753	5.6	0.0512785	310.465	14.8515
12:21:03.763	5.61	0.0229375	310.466	14.8515
12:21:03.773	5.62	-0.0109303	310.466	14.8515
12:21:03.783	5.63	-0.0400377	310.467	14.8515
12:21:03.793	5.64	-0.0647885	310.467	14.8515
12:21:03.803	5.65	-0.0793703	310.468	14.8515
12:21:03.813	5.66	-0.0866338	310.468	14.8515
12:21:03.823	5.67	-0.0867283	310.469	14.8515
12:21:03.833	5.68	-0.0790564	310.469	14.8515
12:21:03.843	5.69	-0.0693097	310.47	14.8515
12:21:03.853	5.7	-0.0569209	310.47	14.8515
12:21:03.863	5.71	-0.0287165	310.47	14.8515
12:21:03.873	5.72	0.0143966	310.471	14.8515
12:21:03.883	5.73	0.0467066	310.471	14.8515
12:21:03.893	5.74	0.0481474	310.471	14.8515
12:21:03.903	5.75	0.0216681	310.472	14.8515
12:21:03.913	5.76	-0.0182937	310.472	14.8515
12:21:03.923	5.77	-0.057463	310.472	14.8515
12:21:03.933	5.78	-0.0766036	310.473	14.8515
12:21:03.943	5.79	-0.0589587	310.473	14.8515
12:21:03.953	5.8	-0.0166386	310.473	14.8515
12:21:03.963	5.81	0.0258094	310.473	14.8515
12:21:03.973	5.82	0.0570879	310.474	14.8515
12:21:03.983	5.83	0.0654837	310.474	14.8515
12:21:03.993	5.84	0.0621574	310.474	14.8515
12:21:04.003	5.85	0.0715785	310.474	14.8515
12:21:04.013	5.86	0.0818973	310.474	14.8515
12:21:04.023	5.87	0.0818649	310.475	14.8515
12:21:04.033	5.88	0.0745388	310.475	14.8515
12:21:04.043	5.89	0.0647072	310.475	14.8515
12:21:04.053	5.9	0.0618024	310.475	14.8515
12:21:04.063	5.91	0.0577805	310.475	14.8515
12:21:04.073	5.92	0.0509715	310.475	14.8515
12:21:04.083	5.93	0.0541399	310.476	14.8515
12:21:04.093	5.94	0.0628209	310.476	14.8515
12:21:04.103	5.95	0.0641358	310.476	14.8515
12:21:04.113	5.96	0.0539257	310.476	14.8515
12:21:04.123	5.97	0.0347955	310.476	14.8515
12:21:04.133	5.98	0.0225741	310.476	14.8515
12:21:04.143	5.99	0.0232701	310.477	14.8515
12:21:04.153	6	0.0296483	310.477	14.8515
12:21:04.163	6.01	0.031951	310.477	14.8515
12:21:04.173	6.02	0.0303146	310.477	14.8515
12:21:04.183	6.03	0.0184346	310.477	14.8515
12:21:04.193	6.04	-0.0122089	310.477	14.8515
12:21:04.203	6.05	-0.063801	310.478	14.8515
12:21:04.213	6.06	-0.104751	310.478	14.8515
12:21:04.223	6.07	-0.125187	310.478	14.8515
12:21:04.233	6.08	-0.131284	310.478	14.8515
12:21:04.243	6.09	-0.113114	310.478	14.8515
12:21:04.253	6.1	-0.0754586	310.479	14.8515
12:21:04.263	6.11	-0.0265455	310.479	14.8515
12:21:04.273	6.12	0.0224865	310.479	14.8515
12:21:04.283	6.13	0.0561485	310.479	14.8515
12:21:04.293	6.14	0.0697727	310.48	14.8515
12:21:04.303	6.15	0.0670829	310.48	14.8515
12:21:04.313	6.16	0.0538965	310.48	14.8515
12:21:04.323	6.17	0.0319333	310.481	14.8515
12:21:04.333	6.18	0.0115312	310.481	14.8515
12:21:04.343	6.19	-0.00143017	310.482	14.8515
12:21:04.353	6.2	-0.010993	310.482	14.8515
12:21:04.363	6.21	-0.022804	310.483	14.8515
12:21:04.373	6.22	-0.0362344	310.483	14.8515
12:21:04.383	6.23	-0.0521305	310.484	14.8515
12:21:04.393	6.24	-0.0610252	310.484	14.8515
12:21:04.403	6.25	-0.0515107	310.485	14.8515
12:21:04.413	6.26	-0.023939	310.486	14.8515
12:21:04.423	6.27	0.00333288	310.486	14.8515
12:21:04.433	6.28	0.0107204	310.487	14.8515
12:21:04.443	6.29	-0.00421609	310.488	14.8515
12:21:04.453	6.3	-0.0168289	310.488	14.8515
12:21:04.463	6.31	-0.016613	310.489	14.8515
12:21:04.473	6.32	-0.00639714	310.49	14.8515
12:21:04.483	6.33	0.00700196	310.491	14.8515
12:21:04.493	6.34	0.0135718	310.492	14.8515
12:21:04.503	6.35	0.010625	310.493	14.8515
12:21:04.513	6.36	-0.00606141	310.494	14.8515
12:21:04.523	6.37	-0.0296087	310.495	14.8515
12:21:04.533	6.38	-0.0386316	310.496	14.8515
12:21:04.543	6.39	-0.0294146	310.497	14.8515
12:21:04.553	6.4	-0.0142849	310.498	14.8515
12:21:04.563	6.41	-0.00563149	310.499	14.8515
12:21:04.573	6.42	-0.00433784	310.5	14.8515
12:21:04.583	6.43	-0.00782652	310.501	14.8515
12:21:04.593	6.44	-0.0123793	310.502	14.8515
12:21:04.603	6.45	-0.0135061	310.503	14.8515
12:21:04.613	6.46	-0.00472028	310.504	14.8515
12:21:04.623	6.47	0.00684077	310.506	14.8515
12:21:04.633	6.48	0.00537969	310.507	14.8515
12:21:04.643	6.49	-0.00468933	310.508	14.8515
12:21:04.653	6.5	-0.0058736	310.509	14.8515
12:21:04.663	6.51	-0.0102318	310.51	14.8515
12:21:04.673	6.52	-0.020196	310.512	14.8515
12:21:04.683	6.53	-0.0277633	310.513	14.8515
12:21:04.693	6.54	-0.0285337	310.514	14.8515
12:21:04.703	6.55	-0.023378	310.515	14.8515
12:21:04.713	6.56	-0.0221809	310.517	14.8515
12:21:04.723	6.57	-0.0294746	310.518	14.8515
12:21:04.733	6.58	-0.0403218	310.519	14.8515
12:21:04.743	6.59	-0.0502175	310.52	14.8515
12:21:04.753	6.6	-0.056871	310.522	14.8515
12:21:04.763	6.61	-0.0592121	310.523	14.8515
12:21:04.773	6.62	-0.0510717	310.524	14.8515
12:21:04.783	6.63	-0.0332717	310.525	14.8515
12:21:04.793	6.64	-0.0172868	310.527	14.8515
12:21:04.803	6.65	-0.00965792	310.528	14.8515
12:21:04.813	6.66	-0.0106477	310.529	14.8515
12:21:04.823	6.67	-0.0120111	310.531	14.8515
12:21:04.833	6.68	-0.0090415	310.532	14.8515
12:21:04.843	6.69	-0.0102612	310.533	14.8515
12:21:04.853	6.7	-0.0193655	310.534	14.8515
12:21:04.863	6.71	-0.0334956	310.536	14.8515
12:21:04.873	6.72	-0.045459	310.537	14.8515
12:21:04.883	6.73	-0.052626	310.538	14.8515
12:21:04.893	6.74	-0.0504749	310.54	14.8515
12:21:04.903	6.75	-0.04029	310.541	14.8515
12:21:04.913	6.76	-0.0253879	310.542	14.8515
12:21:04.923	6.77	-0.0047669	310.543	14.8515
12:21:04.933	6.78	0.0187124	310.544	14.8515
12:21:04.943	6.79	0.0424789	310.546	14.8515
12:21:04.953	6.8	0.0670013	310.547	14.8515
12:21:04.963	6.81	0.0948976	310.548	14.8515
12:21:04.973	6.82	0.122593	310.549	14.8515
12:21:04.983	6.83	0.14394	310.551	14.8515
12:21:04.993	6.84	0.148272	310.552	28.169
12:21:05.003	6.85	0.137017	310.553	28.169
12:21:05.013	6.86	0.117865	310.554	28.169
12:21:05.023	6.87	0.0886567	310.555	28.169
12:21:05.033	6.88	0.0594186	310.556	28.169
12:21:05.043	6.89	0.0402174	310.557	28.169
12:21:05.053	6.9	0.0251394	310.559	28.169
12:21:05.063	6.91	0.00876146	310.56	28.169
12:21:05.073	6.92	-0.00912913	310.561	28.169
12:21:05.083	6.93	-0.0275655	310.562	28.169
12:21:05.093	6.94	-0.0327269	310.563	28.169
12:21:05.103	6.95	-0.0235317	310.564	28.169
12:21:05.113	6.96	-0.0125083	310.565	28.169
12:21:05.123	6.97	-0.00356243	310.566	28.169
12:21:05.133	6.98	0.00410126	310.567	28.169
12:21:05.143	6.99	0.0129072	310.568	28.169
12:21:05.153	7	0.0103785	310.569	28.169
12:21:05.163	7.01	-0.00914918	310.57	28.169
12:21:05.173	7.02	-0.0374581	310.57	28.169
12:21:05.183	7.03	-0.0477147	310.571	28.169
12:21:05.193	7.04	-0.0390361	310.572	28.169
12:21:05.203	7.05	-0.0266472	310.573	28.169
12:21:05.213	7.06	-0.0185704	310.574	28.169
12:21:05.223	7.07	-0.0128345	310.575	28.169
12:21:05.233	7.08	-0.00508197	310.576	28.169
12:21:05.243	7.09	0.00511125	310.576	28.169
12:21:05.253	7.1	0.011134	310.577	28.169
12:21:05.263	7.11	0.010556	310.578	28.169
12:21:05.273	7.12	0.0124222	310.579	28.169
12:21:05.283	7.13	0.0163936	310.579	28.169
12:21:05.293	7.14	0.0109371	310.58	28.169
12:21:05.303	7.15	-0.0073976	310.581	28.169
12:21:05.313	7.16	-0.0364475	310.582	28.169
12:21:05.323	7.17	-0.0625157	310.582	28.169
12:21:05.333	7.18	-0.0731065	310.583	28.169
12:21:05.343	7.19	-0.0631459	310.584	28.169
12:21:05.353	7.2	-0.0456667	310.584	28.169
12:21:05.363	7.21	-0.0330218	310.585	28.169
12:21:05.373	7.22	-0.0218276	310.585	28.169
12:21:05.383	7.23	-0.0164147	310.586	28.169
12:21:05.393	7.24	-0.0170478	310.587	28.169
12:21:05.403	7.25	-0.0204802	310.587	28.169
12:21:05.413	7.26	-0.0329171	310.588	28.169
12:21:05.423	7.27	-0.0438853	310.588	28.169
12:21:05.433	7.28	-0.0475491	310.589	28.169
12:21:05.443	7.29	-0.0449406	310.589	28.169
12:21:05.453	7.3	-0.0430027	310.59	28.169
12:21:05.463	7.31	-0.0434777	310.59	28.169
12:21:05.473	7.32	-0.0401715	310.591	28.169
12:21:05.483	7.33	-0.0335323	310.591	28.169
12:21:05.493	7.34	-0.0238415	310.592	28.169
12:21:05.503	7.35	-0.0145725	310.592	28.169
12:21:05.513	7.36	-0.00538874	310.593	28.169
12:21:05.523	7.37	0.00218103	310.593	28.169
12:21:05.533	7.38	0.00195201	310.594	28.169
12:21:05.543	7.39	-0.000706942	310.594	28.169
12:21:05.553	7.4	-0.000813329	310.594	28.169
12:21:05.563	7.41	-0.00416838	310.595	28.169
12:21:05.573	7.42	-0.0117978	310.595	28.169
12:21:05.583	7.43	-0.0133569	310.596	28.169
12:21:05.593	7.44	-0.0140843	310.596	28.169
12:21:05.603	7.45	-0.0223967	310.596	28.169
12:21:05.613	7.46	-0.0335452	310.597	28.169
12:21:05.623	7.47	-0.0413648	310.597	28.169
12:21:05.633	7.48	-0.0459199	310.597	28.169
12:21:05.643	7.49	-0.0439009	310.598	28.169
12:21:05.653	7.5	-0.0323847	310.598	28.169
12:21:05.663	7.51	-0.0114532	310.598	28.169
12:21:05.673	7.52	0.0123336	310.599	28.169
12:21:05.683	7.53	0.039232	310.599	28.169
12:21:05.693	7.54	0.0623726	310.599	28.169
12:21:05.703	7.55	0.0593527	310.6	28.169
12:21:05.713	7.56	0.0381085	310.6	28.169
12:21:05.723	7.57	0.0192854	310.6	28.169
12:21:05.733	7.58	0.00527403	310.601	28.169
12:21:05.743	7.59	0.000374003	310.601	28.169
12:21:05.753	7.6	0.0100879	310.601	28.169
12:21:05.763	7.61	0.0248277	310.602	28.169
12:21:05.773	7.62	0.0364741	310.602	28.169
12:21:05.783	7.63	0.0360725	310.603	28.169
12:21:05.793	7.64	0.00474532	310.603	28.169
12:21:05.803	7.65	-0.034373	310.603	28.169
12:21:05.813	7.66	-0.0316557	310.604	28.169
12:21:05.823	7.67	-0.030204	310.604	28.169
12:21:05.833	7.68	-0.0342322	310.605	28.169
12:21:05.843	7.69	-0.0362349	310.605	28.169
12:21:05.853	7.7	-0.0276581	310.605	28.169
12:21:05.863	7.71	-0.0116151	310.606	28.169
12:21:05.873	7.72	0.00804934	310.606	28.169
12:21:05.883	7.73	0.0308825	310.607	28.169
12:21:05.893	7.74	0.0297919	310.607	28.169
12:21:05.903	7.75	0.00130622	310.608	28.169
12:21:05.913	7.76	-0.0197535	310.608	28.169
12:21:05.923	7.77	-0.025944	310.609	28.169
12:21:05.933	7.78	-0.0263701	310.609	28.169
12:21:05.943	7.79	-0.0276556	310.61	28.169
12:21:05.953	7.8	-0.026878	310.611	28.169
12:21:05.963	7.81	-0.0185477	310.611	28.169
12:21:05.973	7.82	-0.00373211	310.612	28.169
12:21:05.983	7.83	0.0197285	310.612	28.169
12:21:05.993	7.84	0.0477178	310.613	28.169
12:21:06.003	7.85	0.0721533	310.614	28.169
12:21:06.013	7.86	0.0872599	310.614	28.169
12:21:06.023	7.87	0.094355	310.615	28.169
12:21:06.033	7.88	0.0905144	310.615	28.169
12:21:06.043	7.89	0.0758357	310.616	28.169
12:21:06.053	7.9	0.0621214	310.617	28.169
12:21:06.063	7.91	0.0530074	310.617	28.169
12:21:06.073	7.92	0.0510847	310.618	28.169
12:21:06.083	7.93	0.0583442	310.619	28.169
12:21:06.093	7.94	0.0734015	310.619	28.169
12:21:06.103	7.95	0.0846669	310.62	28.169
12:21:06.113	7.96	0.0841142	310.621	28.169
12:21:06.123	7.97	0.0685596	310.621	28.169
12:21:06.133	7.98	0.0451881	310.622	28.169
12:21:06.143	7.99	0.0226123	310.623	28.169
12:21:06.153	8	-0.00669205	310.623	28.169
12:21:06.163	8.01	-0.0397608	310.624	28.169
12:21:06.173	8.02	-0.0569481	310.625	28.169
12:21:06.182	8.03	-0.0582148	310.625	28.169
12:21:06.192	8.04	-0.0627262	310.626	28.169
12:21:06.203	8.05	-0.059282	310.627	28.169
12:21:06.213	8.06	-0.0511391	310.628	28.169
12:21:06.223	8.07	-0.0423415	310.628	28.169
12:21:06.233	8.08	-0.0392503	310.629	28.169
12:21:06.243	8.09	-0.0201331	310.63	28.169
12:21:06.253	8.1	-0.0131459	310.63	28.169
12:21:06.262	8.11	-0.016702	310.631	28.169
12:21:06.272	8.12	-0.019795	310.632	28.169
12:21:06.283	8.13	-0.045427	310.633	28.169
12:21:06.293	8.14	-0.0568195	310.634	28.169
12:21:06.303	8.15	-0.049488	310.634	28.169
12:21:06.313	8.16	-0.026212	310.635	28.169
12:21:06.323	8.17	-0.00531834	310.636	28.169
12:21:06.333	8.18	0.00170118	310.637	28.169
12:21:06.342	8.19	-0.0082783	310.638	28.169
12:21:06.353	8.2	-0.00779493	310.639	28.169
12:21:06.363	8.21	0.00339965	310.639	28.169
12:21:06.373	8.22	0.0053229	310.64	28.169
12:21:06.383	8.23	0.0107091	310.641	28.169
12:21:06.393	8.24	0.0353521	310.642	28.169
12:21:06.403	8.25	0.077079	310.643	28.169
12:21:06.413	8.26	0.112139	310.644	28.169
12:21:06.423	8.27	0.124384	310.645	28.169
12:21:06.433	8.28	0.114591	310.646	28.169
12:21:06.443	8.29	0.0892896	310.647	28.169
12:21:06.453	8.3	0.0611898	310.648	28.169
12:21:06.463	8.31	0.0410935	310.649	28.169
12:21:06.473	8.32	0.0329062	310.65	28.169
12:21:06.483	8.33	0.0353575	310.651	28.169
12:21:06.493	8.34	0.0431946	310.652	28.169
12:21:06.503	8.35	0.0439185	310.653	28.169
12:21:06.513	8.36	0.0297637	310.654	28.169
12:21:06.523	8.37	0.010051	310.655	28.169
12:21:06.533	8.38	-0.004411	310.656	28.169
12:21:06.543	8.39	-0.0101728	310.657	28.169
12:21:06.553	8.4	-0.00834208	310.658	28.169
12:21:06.563	8.41	-0.00291363	310.659	28.169
12:21:06.573	8.42	0.00623541	310.66	28.169
12:21:06.583	8.43	0.011139	310.662	28.169
12:21:06.593	8.44	0.0129102	310.663	28.169
12:21:06.603	8.45	0.0200672	310.664	28.169
12:21:06.613	8.46	0.0310886	310.665	28.169
12:21:06.623	8.47	0.0438076	310.666	28.169
12:21:06.633	8.48	0.0498274	310.667	28.169
12:21:06.643	8.49	0.0494348	310.668	28.169
12:21:06.653	8.5	0.0439398	310.67	28.169
12:21:06.663	8.51	0.0271565	310.671	28.169
12:21:06.673	8.52	0.00462961	310.672	28.169
12:21:06.683	8.53	-0.0230702	310.673	28.169
12:21:06.693	8.54	-0.0423466	310.674	28.169
12:21:06.703	8.55	-0.0481077	310.676	28.169
12:21:06.713	8.56	-0.0441603	310.677	28.169
12:21:06.723	8.57	-0.0434503	310.678	28.169
12:21:06.733	8.58	-0.0382454	310.679	28.169
12:21:06.743	8.59	-0.0266023	310.68	28.169
12:21:06.753	8.6	-0.0195358	310.682	28.169
12:21:06.763	8.61	-0.00459426	310.683	28.169
12:21:06.773	8.62	0.0103601	310.684	28.169
12:21:06.783	8.63	0.0171937	310.685	28.169
12:21:06.793	8.64	0.00711054	310.686	28.169
12:21:06.803	8.65	-0.0112095	310.687	28.169
12:21:06.813	8.66	-0.0263948	310.689	28.169
12:21:06.823	8.67	-0.0407115	310.69	28.169
12:21:06.833	8.68	-0.0491281	310.691	28.169
12:21:06.843	8.69	-0.0487987	310.692	28.169
12:21:06.853	8.7	-0.0405065	310.693	28.169
12:21:06.863	8.71	-0.036061	310.694	28.169
12:21:06.873	8.72	-0.0356932	310.696	28.169
12:21:06.883	8.73	-0.037648	310.697	28.169
12:21:06.893	8.74	-0.0421903	310.698	28.169
12:21:06.903	8.75	-0.0415628	310.699	28.169
12:21:06.913	8.76	-0.0363309	310.7	28.169
12:21:06.923	8.77	-0.026124	310.701	28.169
12:21:06.933	8.78	-0.0156412	310.702	28.169
12:21:06.943	8.79	-0.017958	310.703	28.169
12:21:06.953	8.8	-0.0258896	310.704	28.169
12:21:06.963	8.81	-0.0326677	310.705	28.169
12:21:06.973	8.82	-0.0298283	310.706	28.169
12:21:06.983	8.83	-0.0169961	310.707	28.169
12:21:06.993	8.84	-0.00717814	310.708	28.169
12:21:07.003	8.85	-0.0045438	310.709	28.169
12:21:07.013	8.86	-0.00993009	310.71	28.169
12:21:07.023	8.87	-0.0250622	310.711	28.169
12:21:07.033	8.88	-0.0394116	310.712	28.169
12:21:07.043	8.89	-0.0467285	310.713	28.169
12:21:07.053	8.9	-0.0461224	310.714	28.169
12:21:07.063	8.91	-0.0375073	310.715	28.169
12:21:07.073	8.92	-0.0193627	310.716	28.169
12:21:07.083	8.93	0.0172254	310.717	28.169
12:21:07.093	8.94	0.0620791	310.718	28.169
12:21:07.103	8.95	0.10443	310.719	28.169
12:21:07.113	8.96	0.132785	310.719	28.169
12:21:07.123	8.97	0.1441	310.72	56.6038
12:21:07.133	8.98	0.140036	310.721	56.6038
12:21:07.143	8.99	0.127065	310.722	56.6038
12:21:07.153	9	0.102355	310.723	56.6038
12:21:07.163	9.01	0.0836509	310.723	56.6038
12:21:07.173	9.02	0.0766389	310.724	56.6038
12:21:07.183	9.03	0.0721833	310.725	56.6038
12:21:07.193	9.04	0.064696	310.726	56.6038
12:21:07.203	9.05	0.0511421	310.726	56.6038
12:21:07.213	9.06	0.0396703	310.727	56.6038
12:21:07.223	9.07	0.0290042	310.728	56.6038
12:21:07.233	9.08	0.0153146	310.728	56.6038
12:21:07.243	9.09	0.00413191	310.729	56.6038
12:21:07.253	9.1	0.00183077	310.73	56.6038
12:21:07.263	9.11	0.000402677	310.73	56.6038
12:21:07.273	9.12	-0.0031897	310.731	56.6038
12:21:07.283	9.13	0.00335736	310.731	56.6038
12:21:07.293	9.14	0.0101647	310.732	56.6038
12:21:07.303	9.15	0.00545396	310.732	56.6038
12:21:07.313	9.16	-0.00295152	310.733	56.6038
12:21:07.323	9.17	-0.00471188	310.733	56.6038
12:21:07.333	9.18	-0.00580157	310.734	56.6038
12:21:07.343	9.19	-0.0165065	310.734	56.6038
12:21:07.353	9.2	-0.0317895	310.735	56.6038
12:21:07.363	9.21	-0.0346842	310.735	56.6038
12:21:07.373	9.22	-0.0264815	310.736	56.6038
12:21:07.383	9.23	-0.0189249	310.736	56.6038
12:21:07.393	9.24	-0.00998837	310.737	56.6038
12:21:07.403	9.25	-0.00171251	310.737	56.6038
12:21:07.413	9.26	0.00272936	310.738	56.6038
12:21:07.423	9.27	0.00705994	310.738	56.6038
12:21:07.433	9.28	0.00860626	310.738	56.6038
12:21:07.443	9.29	0.00283409	310.739	56.6038
12:21:07.453	9.3	-0.012255	310.739	56.6038
12:21:07.463	9.31	-0.0215518	310.739	56.6038
12:21:07.473	9.32	-0.0223779	310.74	56.6038
12:21:07.483	9.33	-0.0169588	310.74	56.6038
12:21:07.493	9.34	-0.0108587	310.74	56.6038
12:21:07.503	9.35	-0.00694514	310.741	56.6038
12:21:07.513	9.36	-0.00707571	310.741	56.6038
12:21:07.523	9.37	-0.00834551	310.741	56.6038
12:21:07.533	9.38	-0.00509684	310.741	56.6038
12:21:07.543	9.39	0.000887676	310.742	56.6038
12:21:07.553	9.4	0.00267101	310.742	56.6038
12:21:07.563	9.41	-0.00435244	310.742	56.6038
12:21:07.573	9.42	-0.0117328	310.742	56.6038
12:21:07.583	9.43	-0.0174566	310.742	56.6038
12:21:07.593	9.44	-0.0156652	310.743	56.6038
12:21:07.603	9.45	-0.0130598	310.743	56.6038
12:21:07.613	9.46	-0.022592	310.743	56.6038
12:21:07.623	9.47	-0.0350492	310.743	56.6038
12:21:07.633	9.48	-0.0369981	310.743	56.6038
12:21:07.643	9.49	-0.0266524	310.744	56.6038
12:21:07.653	9.5	-0.0107567	310.744	56.6038
12:21:07.663	9.51	0.00691655	310.744	56.6038
12:21:07.673	9.52	0.021677	310.744	56.6038
12:21:07.683	9.53	0.0237331	310.744	56.6038
12:21:07.693	9.54	0.00458307	310.744	56.6038
12:21:07.703	9.55	-0.0272278	310.744	56.6038
12:21:07.713	9.56	-0.0443668	310.744	56.6038
12:21:07.723	9.57	-0.0462735	310.745	56.6038
12:21:07.733	9.58	-0.0406265	310.745	56.6038
12:21:07.743	9.59	-0.0334348	310.745	56.6038
12:21:07.753	9.6	-0.0253433	310.745	56.6038
12:21:07.763	9.61	-0.0119289	310.745	56.6038
12:21:07.773	9.62	0.00577847	310.745	56.6038
12:21:07.783	9.63	0.0185372	310.745	56.6038
12:21:07.793	9.64	0.022114	310.745	56.6038
12:21:07.803	9.65	0.0228401	310.745	56.6038
12:21:07.813	9.66	0.0223974	310.745	56.6038
12:21:07.823	9.67	0.0140976	310.745	56.6038
12:21:07.833	9.68	-0.000314065	310.745	56.6038
12:21:07.843	9.69	-0.00800148	310.745	56.6038
12:21:07.853	9.7	-0.00205262	310.745	56.6038
12:21:07.863	9.71	0.00952811	310.745	56.6038
12:21:07.873	9.72	0.0253215	310.745	56.6038
12:21:07.883	9.73	0.0447994	310.746	56.6038
12:21:07.893	9.74	0.0468412	310.746	56.6038
12:21:07.903	9.75	0.0314401	310.746	56.6038
12:21:07.913	9.76	0.0164387	310.746	56.6038
12:21:07.923	9.77	-0.00552802	310.746	56.6038
12:21:07.933	9.78	-0.0285023	310.746	56.6038
12:21:07.943	9.79	-0.0479424	310.746	56.6038
12:21:07.953	9.8	-0.0644818	310.746	56.6038
12:21:07.963	9.81	-0.0683168	310.746	56.6038
12:21:07.973	9.82	-0.0515255	310.746	56.6038
12:21:07.983	9.83	-0.0365293	310.746	56.6038
12:21:07.993	9.84	-0.0324121	310.746	56.6038
12:21:08.003	9.85	-0.0331488	310.746	56.6038
12:21:08.013	9.86	-0.0256786	310.746	56.6038
12:21:08.023	9.87	-0.0132843	310.746	56.6038
12:21:08.033	9.88	-0.00404397	310.746	56.6038
12:21:08.043	9.89	0.00611899	310.746	56.6038
12:21:08.053	9.9	0.0108827	310.746	56.6038
12:21:08.063	9.91	-0.00367356	310.746	56.6038
12:21:08.073	9.92	-0.029168	310.746	56.6038
12:21:08.083	9.93	-0.0481843	310.746	56.6038
12:21:08.093	9.94	-0.0510567	310.746	56.6038
12:21:08.103	9.95	-0.0443392	310.746	56.6038
12:21:08.113	9.96	-0.0414227	310.746	56.6038
12:21:08.123	9.97	-0.0352036	310.746	56.6038
12:21:08.133	9.98	-0.0129072	310.746	56.6038
12:21:08.143	9.99	0.024575	310.746	56.6038
12:21:08.153	10	0.0635996	310.746	56.6038
12:21:08.163	10.01	0.101498	310.746	56.6038
12:21:08.173	10.02	0.135197	310.746	56.6038
12:21:08.183	10.03	0.149601	310.746	61.8557
12:21:08.193	10.04	0.146204	310.745	61.8557
12:21:08.203	10.05	0.133868	310.745	61.8557
12:21:08.213	10.06	0.112888	310.745	61.8557
12:21:08.223	10.07	0.0839353	310.745	61.8557
12:21:08.233	10.08	0.0578679	310.745	61.8557
12:21:08.243	10.09	0.0365408	310.745	61.8557
12:21:08.253	10.1	0.0169875	310.745	61.8557
12:21:08.263	10.11	-0.00186451	310.745	61.8557
12:21:08.273	10.12	-0.0217736	310.745	61.8557
12:21:08.283	10.13	-0.0389526	310.745	61.8557
12:21:08.293	10.14	-0.0423166	310.745	61.8557
12:21:08.303	10.15	-0.0277264	310.745	61.8557
12:21:08.313	10.16	-0.00554672	310.745	61.8557
12:21:08.323	10.17	0.0139429	310.745	61.8557
12:21:08.333	10.18	0.0309345	310.745	61.8557
12:21:08.343	10.19	0.03721	310.745	61.8557
12:21:08.353	10.2	0.0254159	310.745	61.8557
12:21:08.363	10.21	0.00291402	310.745	61.8557
12:21:08.373	10.22	-0.0249092	310.745	61.8557
12:21:08.383	10.23	-0.0370338	310.745	61.8557
12:21:08.393	10.24	-0.0345884	310.745	61.8557
12:21:08.403	10.25	-0.0325368	310.745	61.8557
12:21:08.413	10.26	-0.0286728	310.745	61.8557
12:21:08.423	10.27	-0.00908701	310.745	61.8557
12:21:08.433	10.28	0.011371	310.745	61.8557
12:21:08.443	10.29	0.0179489	310.745	61.8557
12:21:08.453	10.3	0.0158731	310.745	61.8557
12:21:08.463	10.31	0.00823279	310.745	61.8557
12:21:08.473	10.32	0.00205085	310.745	61.8557
12:21:08.483	10.33	-0.00209186	310.745	61.8557
12:21:08.493	10.34	-0.00559128	310.746	61.8557
12:21:08.503	10.35	-0.00791174	310.746	61.8557
12:21:08.513	10.36	-0.0100699	310.746	61.8557
12:21:08.523	10.37	-0.00847976	310.746	61.8557
12:21:08.533	10.38	-0.0026315	310.746	61.8557
12:21:08.543	10.39	0.00366277	310.746	61.8557
12:21:08.553	10.4	0.00240164	310.746	61.8557
12:21:08.563	10.41	-0.00486742	310.747	61.8557
12:21:08.573	10.42	-0.0223448	310.747	61.8557
12:21:08.583	10.43	-0.038869	310.747	61.8557
12:21:08.593	10.44	-0.0391576	310.748	61.8557
12:21:08.603	10.45	-0.0247752	310.748	61.8557
12:21:08.613	10.46	-0.0120005	310.748	61.8557
12:21:08.623	10.47	-0.0123546	310.749	61.8557
12:21:08.633	10.48	-0.0236181	310.749	61.8557
12:21:08.643	10.49	-0.0377491	310.75	61.8557
12:21:08.653	10.5	-0.0398553	310.75	61.8557
12:21:08.663	10.51	-0.0354373	310.75	61.8557
12:21:08.673	10.52	-0.028299	310.751	61.8557
12:21:08.683	10.53	-0.020058	310.752	61.8557
12:21:08.693	10.54	-0.0142291	310.752	61.8557
12:21:08.703	10.55	-0.0142539	310.753	61.8557
12:21:08.713	10.56	-0.0141432	310.753	61.8557
12:21:08.723	10.57	-0.0138244	310.754	61.8557
12:21:08.733	10.58	-0.00544915	310.755	61.8557
12:21:08.743	10.59	0.0144722	310.755	61.8557
12:21:08.753	10.6	0.0337099	310.756	61.8557
12:21:08.763	10.61	0.0440263	310.757	61.8557
12:21:08.773	10.62	0.0460865	310.758	61.8557
12:21:08.783	10.63	0.0413148	310.758	61.8557
12:21:08.793	10.64	0.0255049	310.759	61.8557
12:21:08.803	10.65	0.00110282	310.76	61.8557
12:21:08.813	10.66	-0.0270659	310.761	61.8557
12:21:08.823	10.67	-0.0506413	310.762	61.8557
12:21:08.833	10.68	-0.060888	310.763	61.8557
12:21:08.843	10.69	-0.0552797	310.764	61.8557
12:21:08.853	10.7	-0.0380971	310.765	61.8557
12:21:08.863	10.71	-0.0162645	310.766	61.8557
12:21:08.873	10.72	0.00208917	310.767	61.8557
12:21:08.883	10.73	0.0192926	310.768	61.8557
12:21:08.893	10.74	0.0321015	310.769	61.8557
12:21:08.903	10.75	0.0300824	310.77	61.8557
12:21:08.913	10.76	0.0188878	310.771	61.8557
12:21:08.923	10.77	0.0113815	310.772	61.8557
12:21:08.933	10.78	0.00729316	310.773	61.8557
12:21:08.943	10.79	-0.00101216	310.774	61.8557
12:21:08.953	10.8	-0.014638	310.775	61.8557
12:21:08.963	10.81	-0.0254956	310.777	61.8557
12:21:08.973	10.82	-0.0313838	310.778	61.8557
12:21:08.983	10.83	-0.0288092	310.779	61.8557
12:21:08.993	10.84	-0.0198573	310.78	61.8557
12:21:09.003	10.85	-0.0134263	310.781	61.8557
12:21:09.013	10.86	-0.00866477	310.782	61.8557
12:21:09.023	10.87	-0.00848404	310.784	61.8557
12:21:09.033	10.88	-0.0191504	310.785	61.8557
12:21:09.043	10.89	-0.0295741	310.786	61.8557
12:21:09.053	10.9	-0.0296313	310.787	61.8557
12:21:09.063	10.91	-0.0191385	310.788	61.8557
12:21:09.073	10.92	-0.00589201	310.789	61.8557
12:21:09.083	10.93	9.60256e-06	310.79	61.8557
12:21:09.093	10.94	8.89065e-05	310.792	61.8557
12:21:09.103	10.95	0.00729689	310.793	61.8557
12:21:09.113	10.96	0.0295862	310.794	61.8557
12:21:09.123	10.97	0.065929	310.795	61.8557
12:21:09.133	10.98	0.0988835	310.796	61.8557
12:21:09.143	10.99	0.121901	310.797	61.8557
12:21:09.153	11	0.134122	310.799	14.1509
12:21:09.163	11.01	0.130686	310.8	14.1509
12:21:09.173	11.02	0.107301	310.801	14.1509
12:21:09.183	11.03	0.0704989	310.802	14.1509
12:21:09.193	11.04	0.0391682	310.803	14.1509
12:21:09.203	11.05	0.0247159	310.804	14.1509
12:21:09.213	11.06	0.019343	310.805	14.1509
12:21:09.223	11.07	0.0165574	310.806	14.1509
12:21:09.233	11.08	0.0187903	310.808	14.1509
12:21:09.243	11.09	0.0268184	310.809	14.1509
12:21:09.253	11.1	0.0379619	310.81	14.1509
12:21:09.263	11.11	0.0438427	310.811	14.1509
12:21:09.273	11.12	0.0433757	310.812	14.1509
12:21:09.283	11.13	0.0337834	310.813	14.1509
12:21:09.293	11.14	0.0165313	310.814	14.1509
12:21:09.303	11.15	-0.000990836	310.815	14.1509
12:21:09.313	11.16	-0.0202993	310.816	14.1509
12:21:09.323	11.17	-0.0387803	310.817	14.1509
12:21:09.333	11.18	-0.0557462	310.818	14.1509
12:21:09.343	11.19	-0.0653323	310.82	14.1509
12:21:09.353	11.2	-0.0592503	310.821	14.1509
12:21:09.363	11.21	-0.0461928	310.822	14.1509
12:21:09.373	11.22	-0.0273679	310.823	14.1509
12:21:09.383	11.23	0.00174062	310.824	14.1509
12:21:09.393	11.24	0.0192063	310.825	14.1509
12:21:09.403	11.25	0.0281441	310.826	14.1509
12:21:09.413	11.26	0.0307275	310.827	14.1509
12:21:09.423	11.27	0.0273079	310.828	14.1509
12:21:09.433	11.28	0.0281287	310.829	14.1509
12:21:09.443	11.29	0.0269953	310.83	14.1509
12:21:09.453	11.3	0.0260293	310.831	14.1509
12:21:09.463	11.31	0.0252965	310.832	14.1509
12:21:09.473	11.32	0.0256355	310.833	14.1509
12:21:09.483	11.33	0.0140754	310.834	14.1509
12:21:09.493	11.34	-0.00711741	310.835	14.1509
12:21:09.503	11.35	-0.0290824	310.835	14.1509
12:21:09.513	11.36	-0.0433046	310.836	14.1509
12:21:09.523	11.37	-0.0501123	310.837	14.1509
12:21:09.533	11.38	-0.0503646	310.838	14.1509
12:21:09.543	11.39	-0.0423963	310.839	14.1509
12:21:09.553	11.4	-0.0345159	310.84	14.1509
12:21:09.563	11.41	-0.028009	310.841	14.1509
12:21:09.573	11.42	-0.0195829	310.842	14.1509
12:21:09.583	11.43	-0.0111659	310.843	14.1509
12:21:09.593	11.44	-0.00671266	310.844	14.1509
12:21:09.603	11.45	-0.00378614	310.844	14.1509
12:21:09.613	11.46	-0.00142375	310.845	14.1509
12:21:09.623	11.47	0.00108888	310.846	14.1509
12:21:09.633	11.48	0.00622678	310.847	14.1509
12:21:09.643	11.49	0.00907548	310.848	14.1509
12:21:09.653	11.5	-0.000686454	310.848	14.1509
12:21:09.663	11.51	-0.0232022	310.849	14.1509
12:21:09.673	11.52	-0.0397644	310.85	14.1509
12:21:09.683	11.53	-0.0427461	310.851	14.1509
12:21:09.693	11.54	-0.0413722	310.852	14.1509
12:21:09.703	11.55	-0.0398073	310.852	14.1509
12:21:09.713	11.56	-0.0322749	310.853	14.1509
12:21:09.723	11.57	-0.0217475	310.854	14.1509
12:21:09.733	11.58	-0.0111979	310.854	14.1509
12:21:09.743	11.59	-0.00221186	310.855	14.1509
12:21:09.753	11.6	-0.00120908	310.856	14.1509
12:21:09.763	11.61	-0.00352423	310.856	14.1509
12:21:09.773	11.62	-0.00698918	310.857	14.1509
12:21:09.783	11.63	-0.0147242	310.858	14.1509
12:21:09.793	11.64	-0.0224605	310.858	14.1509
12:21:09.803	11.65	-0.0251641	310.859	14.1509
12:21:09.813	11.66	-0.0226577	310.86	14.1509
12:21:09.823	11.67	-0.0217136	310.86	14.1509
12:21:09.833	11.68	-0.0277835	310.861	14.1509
12:21:09.843	11.69	-0.0299435	310.861	14.1509
12:21:09.853	11.7	-0.0235201	310.862	14.1509
12:21:09.863	11.71	-0.0183441	310.863	14.1509
12:21:09.873	11.72	-0.0184528	310.863	14.1509
12:21:09.883	11.73	-0.0242246	310.864	14.1509
12:21:09.893	11.74	-0.0331844	310.864	14.1509
12:21:09.903	11.75	-0.0437488	310.865	14.1509
12:21:09.913	11.76	-0.0468	310.865	14.1509
12:21:09.923	11.77	-0.0399539	310.866	14.1509
12:21:09.933	11.78	-0.0209725	310.866	14.1509
12:21:09.943	11.79	0.00239739	310.867	14.1509
12:21:09.953	11.8	0.0109028	310.868	14.1509
12:21:09.963	11.81	0.00175446	310.868	14.1509
12:21:09.973	11.82	-0.010006	310.869	14.1509
12:21:09.983	11.83	-0.0105903	310.869	14.1509
12:21:09.993	11.84	-0.00744284	310.87	14.1509
12:21:10.003	11.85	-0.0080895	310.87	14.1509
12:21:10.013	11.86	-0.000847007	310.871	14.1509
12:21:10.023	11.87	0.0154291	310.871	14.1509
12:21:10.033	11.88	0.0314793	310.872	14.1509
12:21:10.043	11.89	0.0506689	310.872	14.1509
12:21:10.053	11.9	0.0770365	310.873	14.1509
12:21:10.063	11.91	0.0995507	310.873	14.1509
12:21:10.073	11.92	0.110453	310.874	14.1509
12:21:10.083	11.93	0.111115	310.874	14.1509
12:21:10.093	11.94	0.105632	310.875	14.1509
12:21:10.103	11.95	0.0933789	310.875	14.1509
12:21:10.113	11.96	0.0752319	310.876	14.1509
12:21:10.123	11.97	0.0598862	310.876	14.1509
12:21:10.133	11.98	0.0486982	310.877	14.1509
12:21:10.143	11.99	0.0397056	310.878	14.1509
12:21:10.153	12	0.0340645	310.878	14.1509
12:21:10.163	12.01	0.0320917	310.879	14.1509
12:21:10.173	12.02	0.0265944	310.88	14.1509
12:21:10.183	12.03	0.0156349	310.88	14.1509
12:21:10.193	12.04	0.0106843	310.881	14.1509
12:21:10.203	12.05	0.018406	310.882	14.1509
12:21:10.213	12.06	0.0293492	310.882	14.1509
12:21:10.223	12.07	0.0315901	310.883	14.1509
12:21:10.233	12.08	0.017856	310.884	14.1509
12:21:10.243	12.09	-0.0106598	310.885	14.1509
12:21:10.253	12.1	-0.0479641	310.886	14.1509
12:21:10.263	12.11	-0.0790832	310.886	14.1509
12:21:10.273	12.12	-0.0860486	310.887	14.1509
12:21:10.283	12.13	-0.0725676	310.888	14.1509
12:21:10.293	12.14	-0.0496316	310.889	14.1509
12:21:10.303	12.15	-0.00994045	310.89	14.1509
12:21:10.313	12.16	0.0254699	310.891	14.1509
12:21:10.323	12.17	0.0456803	310.892	14.1509
12:21:10.333	12.18	0.0637384	310.893	14.1509
12:21:10.343	12.19	0.0601152	310.894	14.1509
12:21:10.353	12.2	0.0380939	310.895	14.1509
12:21:10.363	12.21	0.0083181	310.896	14.1509
12:21:10.373	12.22	-0.0114048	310.897	14.1509
12:21:10.383	12.23	-0.0212947	310.898	14.1509
12:21:10.393	12.24	-0.0285561	310.9	14.1509
12:21:10.403	12.25	-0.0286231	310.901	14.1509
12:21:10.413	12.26	-0.0234255	310.902	14.1509
12:21:10.423	12.27	-0.0194264	310.903	14.1509
12:21:10.433	12.28	-0.0210685	310.905	14.1509
12:21:10.443	12.29	-0.0247894	310.906	14.1509
12:21:10.453	12.3	-0.0217631	310.907	14.1509
12:21:10.463	12.31	-0.0117109	310.908	14.1509
12:21:10.473	12.32	-0.00474472	310.91	14.1509
12:21:10.483	12.33	-0.00164806	310.911	14.1509
12:21:10.493	12.34	-3.51168e-05	310.912	14.1509
12:21:10.503	12.35	-0.00108621	310.914	14.1509
12:21:10.513	12.36	-0.00430321	310.915	14.1509
12:21:10.523	12.37	-0.0080004	310.917	14.1509
12:21:10.533	12.38	-0.0180733	310.918	14.1509
12:21:10.543	12.39	-0.0282043	310.919	14.1509
12:21:10.553	12.4	-0.0274519	310.921	14.1509
12:21:10.563	12.41	-0.0168409	310.922	14.1509
12:21:10.573	12.42	-0.00520561	310.924	14.1509
12:21:10.583	12.43	0.00269988	310.925	14.1509
12:21:10.593	12.44	0.00906052	310.927	14.1509
12:21:10.603	12.45	0.010545	310.928	14.1509
12:21:10.613	12.46	0.00245933	310.93	14.1509
12:21:10.623	12.47	-0.0118611	310.931	14.1509
12:21:10.633	12.48	-0.024988	310.933	14.1509
12:21:10.643	12.49	-0.0299717	310.934	14.1509
12:21:10.653	12.5	-0.0233136	310.936	14.1509
12:21:10.663	12.51	-0.00464993	310.937	14.1509
12:21:10.673	12.52	0.00797081	310.939	14.1509
12:21:10.683	12.53	0.0100647	310.94	14.1509
12:21:10.693	12.54	0.0110267	310.942	14.1509
12:21:10.703	12.55	0.00837864	310.943	14.1509
12:21:10.713	12.56	0.00928533	310.945	14.1509
12:21:10.723	12.57	0.0113503	310.946	14.1509
12:21:10.733	12.58	0.00675923	310.948	14.1509
12:21:10.743	12.59	-0.00238466	310.949	14.1509
12:21:10.753	12.6	-0.00568039	310.951	14.1509
12:21:10.763	12.61	-0.00875225	310.952	14.1509
12:21:10.773	12.62	-0.0220394	310.953	14.1509
12:21:10.783	12.63	-0.0290646	310.955	14.1509
12:21:10.793	12.64	-0.0340958	310.956	14.1509
12:21:10.803	12.65	-0.0444817	310.958	14.1509
12:21:10.813	12.66	-0.0521636	310.959	14.1509
12:21:10.823	12.67	-0.0511815	310.961	14.1509
12:21:10.833	12.68	-0.0453861	310.962	14.1509
12:21:10.843	12.69	-0.0441486	310.963	14.1509
12:21:10.853	12.7	-0.0437667	310.965	14.1509
12:21:10.863	12.71	-0.0405612	310.966	14.1509
12:21:10.873	12.72	-0.0338997	310.967	14.1509
12:21:10.883	12.73	-0.0275968	310.969	14.1509
12:21:10.893	12.74	-0.0206574	310.97	14.1509
12:21:10.903	12.75	-0.0244518	310.971	14.1509
12:21:10.913	12.76	-0.0268336	310.972	14.1509
12:21:10.923	12.77	-0.0239472	310.974	14.1509
12:21:10.933	12.78	-0.0209292	310.975	14.1509
12:21:10.943	12.79	-0.0161482	310.976	14.1509
12:21:10.953	12.8	-0.0129599	310.977	14.1509
12:21:10.963	12.81	-0.0163112	310.978	14.1509
12:21:10.973	12.82	-0.0175411	310.979	14.1509
12:21:10.983	12.83	-0.00901296	310.981	14.1509
12:21:10.993	12.84	0.000656808	310.982	14.1509
12:21:11.003	12.85	0.0135646	310.983	14.1509
12:21:11.013	12.86	0.0261293	310.984	14.1509
12:21:11.023	12.87	0.0256811	310.985	14.1509
12:21:11.033	12.88	0.0201486	310.986	14.1509
12:21:11.043	12.89	0.0170453	310.987	14.1509
12:21:11.053	12.9	0.0226413	310.988	14.1509
12:21:11.063	12.91	0.0364071	310.989	14.1509
12:21:11.073	12.92	0.0581185	310.99	14.1509
12:21:11.083	12.93	0.0771904	310.991	14.1509
12:21:11.093	12.94	0.0819187	310.992	14.1509
12:21:11.103	12.95	0.0857857	310.992	14.1509
12:21:11.113	12.96	0.0932272	310.993	14.1509
12:21:11.123	12.97	0.0993374	310.994	14.1509
12:21:11.133	12.98	0.100336	310.995	14.1509
12:21:11.143	12.99	0.0923022	310.996	14.1509
12:21:11.153	13	0.0847529	310.997	14.1509
12:21:11.163	13.01	0.0776208	310.997	14.1509
12:21:11.173	13.02	0.0674084	310.998	14.1509
12:21:11.183	13.03	0.0529053	310.999	14.1509
12:21:11.193	13.04	0.0242142	311	14.1509
12:21:11.203	13.05	-0.00797447	311	14.1509
12:21:11.213	13.06	-0.0282747	311.001	14.1509
12:21:11.223	13.07	-0.0342426	311.002	14.1509
12:21:11.233	13.08	-0.0337529	311.002	14.1509
12:21:11.243	13.09	-0.0299566	311.003	14.1509
12:21:11.253	13.1	-0.0245269	311.003	14.1509
12:21:11.263	13.11	-0.0213597	311.004	14.1509
12:21:11.273	13.12	-0.0170002	311.004	14.1509
12:21:11.283	13.13	-0.0156067	311.005	14.1509
12:21:11.293	13.14	-0.0106837	311.006	14.1509
12:21:11.303	13.15	-0.000471672	311.006	14.1509
12:21:11.313	13.16	0.0216951	311.007	14.1509
12:21:11.323	13.17	0.0440772	311.007	14.1509
12:21:11.333	13.18	0.0508788	311.008	14.1509
12:21:11.343	13.19	0.0329334	311.008	14.1509
12:21:11.353	13.2	0.00938124	311.008	14.1509
12:21:11.363	13.21	-0.00397953	311.009	14.1509
12:21:11.373	13.22	0.0156243	311.009	14.1509
12:21:11.383	13.23	0.044707	311.01	14.1509
12:21:11.393	13.24	0.0479902	311.01	14.1509
12:21:11.403	13.25	0.0421637	311.011	14.1509
12:21:11.413	13.26	0.029293	311.011	14.1509
12:21:11.423	13.27	0.0137851	311.012	14.1509
12:21:11.433	13.28	-0.00612946	311.012	14.1509
12:21:11.443	13.29	-0.00599936	311.013	14.1509
12:21:11.453	13.3	0.00223736	311.013	14.1509
12:21:11.463	13.31	0.0102287	311.014	14.1509
12:21:11.473	13.32	0.0194277	311.014	14.1509
12:21:11.483	13.33	0.0204157	311.015	14.1509
12:21:11.493	13.34	0.0213543	311.015	14.1509
12:21:11.503	13.35	0.0233993	311.016	14.1509
12:21:11.513	13.36	0.0211647	311.016	14.1509
12:21:11.523	13.37	0.0170753	311.017	14.1509
12:21:11.533	13.38	0.0127969	311.018	14.1509
12:21:11.543	13.39	0.0054782	311.018	14.1509
12:21:11.553	13.4	-0.00778292	311.019	14.1509
12:21:11.563	13.41	-0.0306198	311.02	14.1509
12:21:11.573	13.42	-0.0492504	311.02	14.1509
12:21:11.583	13.43	-0.0571958	311.021	14.1509
12:21:11.593	13.44	-0.0600677	311.022	14.1509
12:21:11.603	13.45	-0.0523066	311.023	14.1509
12:21:11.613	13.46	-0.0355678	311.024	14.1509
12:21:11.623	13.47	-0.00429788	311.024	14.1509
12:21:11.633	13.48	0.0230772	311.025	14.1509
12:21:11.643	13.49	0.028059	311.026	14.1509
12:21:11.653	13.5	0.0179674	311.027	14.1509
12:21:11.663	13.51	0.00622899	311.028	14.1509
12:21:11.673	13.52	-0.00629435	311.029	14.1509
12:21:11.683	13.53	-0.0166241	311.03	14.1509
12:21:11.693	13.54	-0.0250403	311.031	14.1509
12:21:11.703	13.55	-0.0231111	311.032	14.1509
12:21:11.713	13.56	-0.0084464	311.033	14.1509
12:21:11.723	13.57	-0.00863053	311.034	14.1509
12:21:11.733	13.58	-0.0231197	311.035	14.1509
12:21:11.743	13.59	-0.0464665	311.036	14.1509
12:21:11.753	13.6	-0.0730538	311.038	14.1509
12:21:11.763	13.61	-0.0890284	311.039	14.1509
12:21:11.773	13.62	-0.0599573	311.04	14.1509
12:21:11.783	13.63	-0.0293185	311.041	14.1509
12:21:11.793	13.64	-0.0150544	311.042	14.1509
12:21:11.803	13.65	-0.0104385	311.044	14.1509
12:21:11.813	13.66	0.00423976	311.045	14.1509
12:21:11.823	13.67	0.00966722	311.046	14.1509
12:21:11.833	13.68	0.0194762	311.047	14.1509
12:21:11.843	13.69	0.0252958	311.049	14.1509
12:21:11.853	13.7	0.0212823	311.05	14.1509
12:21:11.863	13.71	0.012056	311.051	14.1509
12:21:11.873	13.72	0.00821883	311.053	14.1509
12:21:11.883	13.73	0.0127334	311.054	14.1509
12:21:11.893	13.74	0.0176257	311.055	14.1509
12:21:11.903	13.75	0.0302993	311.057	14.1509
12:21:11.913	13.76	0.041146	311.058	14.1509
12:21:11.923	13.77	0.036891	311.06	14.1509
12:21:11.933	13.78	0.0204073	311.061	14.1509
12:21:11.943	13.79	0.00509743	311.062	14.1509
12:21:11.953	13.8	-0.0125553	311.064	14.1509
12:21:11.963	13.81	-0.027951	311.065	14.1509
12:21:11.973	13.82	-0.0378833	311.067	14.1509
12:21:11.983	13.83	-0.0369112	311.068	14.1509
12:21:11.993	13.84	-0.030327	311.07	14.1509
12:21:12.003	13.85	-0.0198242	311.071	14.1509
12:21:12.013	13.86	-0.0102174	311.073	14.1509
12:21:12.023	13.87	-0.00351005	311.074	14.1509
12:21:12.033	13.88	-0.000288359	311.075	14.1509
12:21:12.043	13.89	-0.00189986	311.077	14.1509
12:21:12.053	13.9	-0.00213363	311.078	14.1509
12:21:12.063	13.91	-0.00493662	311.08	14.1509
12:21:12.073	13.92	-0.0101136	311.081	14.1509
12:21:12.083	13.93	-0.0170209	311.083	14.1509
12:21:12.093	13.94	-0.0320907	311.084	14.1509
12:21:12.103	13.95	-0.0526995	311.085	14.1509
12:21:12.113	13.96	-0.0625298	311.087	14.1509
12:21:12.123	13.97	-0.0669826	311.088	14.1509
12:21:12.133	13.98	-0.0588145	311.09	14.1509
12:21:12.143	13.99	-0.031168	311.091	14.1509
12:21:12.153	14	-0.000804118	311.092	14.1509
12:21:12.163	14.01	0.0162225	311.094	14.1509
12:21:12.173	14.02	0.0293886	311.095	14.1509
12:21:12.183	14.03	0.0413128	311.096	14.1509
12:21:12.193	14.04	0.0681241	311.098	14.1509
12:21:12.203	14.05	0.0970783	311.099	14.1509
12:21:12.213	14.06	0.114743	311.1	14.1509
12:21:12.223	14.07	0.122123	311.102	14.1509
12:21:12.233	14.08	0.114378	311.103	14.1509
12:21:12.243	14.09	0.0941284	311.104	14.1509
12:21:12.253	14.1	0.0750599	311.105	14.1509
12:21:12.263	14.11	0.0625687	311.107	14.1509
12:21:12.273	14.12	0.0538072	311.108	14.1509
12:21:12.283	14.13	0.0414026	311.109	14.1509
12:21:12.293	14.14	0.0243271	311.11	14.1509
12:21:12.303	14.15	0.00684845	311.111	14.1509
12:21:12.313	14.16	-0.0157293	311.112	14.1509
12:21:12.323	14.17	-0.0393971	311.113	14.1509
12:21:12.333	14.18	-0.0423434	311.115	14.1509
12:21:12.343	14.19	-0.025171	311.116	14.1509
12:21:12.353	14.2	0.00281939	311.117	14.1509
12:21:12.363	14.21	0.0403063	311.118	14.1509
12:21:12.373	14.22	0.0701646	311.119	14.1509
12:21:12.383	14.23	0.0843632	311.12	14.1509
12:21:12.393	14.24	0.0874433	311.121	14.1509
12:21:12.403	14.25	0.0668	311.122	14.1509
12:21:12.413	14.26	0.0359994	311.123	14.1509
12:21:12.423	14.27	0.00636609	311.124	14.1509
12:21:12.433	14.28	-0.0299081	311.125	14.1509
12:21:12.443	14.29	-0.0661448	311.125	14.1509
12:21:12.453	14.3	-0.0747279	311.126	14.1509
12:21:12.463	14.31	-0.0604904	311.127	14.1509
12:21:12.473	14.32	-0.0317243	311.128	14.1509
12:21:12.483	14.33	0.00603135	311.129	14.1509
12:21:12.493	14.34	0.0351054	311.13	14.1509
12:21:12.503	14.35	0.0472596	311.13	14.1509
12:21:12.513	14.36	0.0463966	311.131	14.1509
12:21:12.523	14.37	0.0359792	311.132	14.1509
12:21:12.533	14.38	0.0200941	311.133	14.1509
12:21:12.543	14.39	-0.00108454	311.133	14.1509
12:21:12.553	14.4	-0.0139139	311.134	14.1509
12:21:12.563	14.41	-0.020653	311.135	14.1509
12:21:12.573	14.42	-0.0269071	311.135	14.1509
12:21:12.583	14.43	-0.0249201	311.136	14.1509
12:21:12.593	14.44	-0.0199081	311.137	14.1509
12:21:12.603	14.45	-0.0105986	311.137	14.1509
12:21:12.613	14.46	0.00412759	311.138	14.1509
12:21:12.623	14.47	0.012126	311.138	14.1509
12:21:12.633	14.48	0.00677546	311.139	14.1509
12:21:12.643	14.49	-0.00384572	311.139	14.1509
12:21:12.653	14.5	-0.0136819	311.14	14.1509
12:21:12.663	14.51	-0.0217842	311.14	14.1509
12:21:12.673	14.52	-0.0267551	311.141	14.1509
12:21:12.683	14.53	-0.0287991	311.141	14.1509
12:21:12.693	14.54	-0.0310414	311.142	14.1509
12:21:12.703	14.55	-0.0291954	311.142	14.1509
12:21:12.713	14.56	-0.022911	311.143	14.1509
12:21:12.723	14.57	-0.0197723	311.143	14.1509
12:21:12.733	14.58	-0.0197232	311.144	14.1509
12:21:12.743	14.59	-0.0183186	311.144	14.1509
12:21:12.753	14.6	-0.0098125	311.144	14.1509
12:21:12.763	14.61	-6.97077e-05	311.145	14.1509
12:21:12.773	14.62	0.00681058	311.145	14.1509
12:21:12.783	14.63	0.0185384	311.145	14.1509
12:21:12.793	14.64	0.0249832	311.146	14.1509
12:21:12.803	14.65	0.0183479	311.146	14.1509
12:21:12.813	14.66	0.00101548	311.146	14.1509
12:21:12.823	14.67	-0.0188182	311.146	14.1509
12:21:12.833	14.68	-0.0394334	311.147	14.1509
12:21:12.843	14.69	-0.0580877	311.147	14.1509
12:21:12.853	14.7	-0.0694206	311.147	14.1509
12:21:12.863	14.71	-0.0737207	311.147	14.1509
12:21:12.873	14.72	-0.0681785	311.148	14.1509
12:21:12.883	14.73	-0.0550151	311.148	14.1509
12:21:12.893	14.74	-0.0353934	311.148	14.1509
12:21:12.903	14.75	-0.0166791	311.148	14.1509
12:21:12.913	14.76	-0.00129413	311.148	14.1509
12:21:12.923	14.77	0.00699066	311.149	14.1509
12:21:12.933	14.78	0.00395706	311.149	14.1509
12:21:12.943	14.79	-0.0111193	311.149	14.1509
12:21:12.953	14.8	-0.0295992	311.149	14.1509
12:21:12.963	14.81	-0.0390697	311.149	14.1509
12:21:12.973	14.82	-0.041272	311.149	14.1509
12:21:12.983	14.83	-0.0394851	311.15	14.1509
12:21:12.993	14.84	-0.0353966	311.15	14.1509
12:21:13.003	14.85	-0.03328	311.15	14.1509
12:21:13.013	14.86	-0.0372846	311.15	14.1509
12:21:13.023	14.87	-0.0390922	311.15	14.1509
12:21:13.033	14.88	-0.0337132	311.15	14.1509
12:21:13.043	14.89	-0.0276401	311.15	14.1509
12:21:13.053	14.9	-0.0230035	311.15	14.1509
12:21:13.063	14.91	-0.020192	311.15	14.1509
12:21:13.073	14.92	-0.0174043	311.151	14.1509
12:21:13.083	14.93	-0.0202662	311.151	14.1509
12:21:13.093	14.94	-0.0258196	311.151	14.1509
12:21:13.103	14.95	-0.0202374	311.151	14.1509
12:21:13.113	14.96	-0.0194234	311.151	14.1509
12:21:13.123	14.97	-0.0217453	311.151	14.1509
12:21:13.133	14.98	-0.0255619	311.151	14.1509
12:21:13.143	14.99	-0.025538	311.151	14.1509
12:21:13.153	15	-0.0255466	311.151	14.1509
12:21:13.163	15.01	-0.0271273	311.151	14.1509
12:21:13.173	15.02	-0.0261845	311.151	14.1509
12:21:13.183	15.03	-0.0165375	311.151	14.1509
12:21:13.193	15.04	-0.00490956	311.151	14.1509
12:21:13.203	15.05	-0.0096999	311.151	14.1509
12:21:13.213	15.06	-0.0281173	311.152	14.1509
12:21:13.223	15.07	-0.036876	311.152	14.1509
12:21:13.233	15.08	-0.0257181	311.152	14.1509
12:21:13.243	15.09	-0.00729068	311.152	14.1509
12:21:13.253	15.1	0.00277258	311.152	14.1509
12:21:13.263	15.11	0.000905524	311.152	14.1509
12:21:13.273	15.12	-0.00785225	311.152	14.1509
12:21:13.283	15.13	-0.0147082	311.152	14.1509
12:21:13.293	15.14	-0.0177146	311.152	14.1509
12:21:13.303	15.15	-0.0302761	311.152	14.1509
12:21:13.313	15.16	-0.0409935	311.152	14.1509
12:21:13.323	15.17	-0.0416277	311.153	14.1509
12:21:13.333	15.18	-0.028689	311.153	14.1509
12:21:13.343	15.19	-0.000294747	311.153	14.1509
12:21:13.353	15.2	0.0421893	311.153	14.1509
12:21:13.363	15.21	0.0920453	311.153	14.1509
12:21:13.373	15.22	0.133536	311.153	14.1509
12:21:13.383	15.23	0.158821	311.153	14.1509
12:21:13.393	15.24	0.167797	311.153	51.2821
12:21:13.403	15.25	0.159841	311.154	51.2821
12:21:13.413	15.26	0.138234	311.154	51.2821
12:21:13.423	15.27	0.115823	311.154	51.2821
12:21:13.433	15.28	0.0985413	311.154	51.2821
12:21:13.443	15.29	0.0801577	311.154	51.2821
12:21:13.453	15.3	0.0535717	311.154	51.2821
12:21:13.463	15.31	0.0193161	311.154	51.2821
12:21:13.473	15.32	-0.019093	311.154	51.2821
12:21:13.483	15.33	-0.0403566	311.155	51.2821
12:21:13.493	15.34	-0.0372025	311.155	51.2821
12:21:13.503	15.35	-0.0268748	311.155	51.2821
12:21:13.513	15.36	-0.0189054	311.155	51.2821
12:21:13.523	15.37	-0.0127603	311.155	51.2821
12:21:13.533	15.38	-0.0158224	311.155	51.2821
12:21:13.543	15.39	-0.0139942	311.155	51.2821
12:21:13.553	15.4	-0.0139296	311.156	51.2821
12:21:13.563	15.41	-0.0214097	311.156	51.2821
12:21:13.573	15.42	-0.0296359	311.156	51.2821
12:21:13.583	15.43	-0.0264816	311.156	51.2821
12:21:13.593	15.44	-0.0214385	311.156	51.2821
12:21:13.603	15.45	-0.00953334	311.156	51.2821
12:21:13.613	15.46	0.0173817	311.157	51.2821
12:21:13.623	15.47	0.0404047	311.157	51.2821
12:21:13.633	15.48	0.0484173	311.157	51.2821
12:21:13.643	15.49	0.0444041	311.157	51.2821
12:21:13.653	15.5	0.0362496	311.157	51.2821
12:21:13.663	15.51	0.0235219	311.157	51.2821
12:21:13.673	15.52	-0.000329879	311.158	51.2821
12:21:13.683	15.53	-0.0248946	311.158	51.2821
12:21:13.693	15.54	-0.0395762	311.158	51.2821
12:21:13.703	15.55	-0.0380181	311.158	51.2821
12:21:13.713	15.56	-0.0282898	311.158	51.2821
12:21:13.723	15.57	-0.0154388	311.159	51.2821
12:21:13.733	15.58	-0.00698234	311.159	51.2821
12:21:13.743	15.59	-0.0027085	311.159	51.2821
12:21:13.753	15.6	-0.00232076	311.159	51.2821
12:21:13.763	15.61	-0.00995808	311.16	51.2821
12:21:13.773	15.62	-0.0221578	311.16	51.2821
12:21:13.783	15.63	-0.0287681	311.16	51.2821
12:21:13.793	15.64	-0.0192191	311.16	51.2821
12:21:13.803	15.65	-0.0135163	311.16	51.2821
12:21:13.813	15.66	-0.0162611	311.161	51.2821
12:21:13.823	15.67	-0.0253473	311.161	51.2821
12:21:13.833	15.68	-0.0356999	311.161	51.2821
12:21:13.843	15.69	-0.0435746	311.161	51.2821
12:21:13.853	15.7	-0.0439159	311.161	51.2821
12:21:13.863	15.71	-0.0343187	311.162	51.2821
12:21:13.873	15.72	-0.0176365	311.162	51.2821
12:21:13.883	15.73	0.00117237	311.162	51.2821
12:21:13.893	15.74	0.0149765	311.162	51.2821
12:21:13.903	15.75	0.026889	311.162	51.2821
12:21:13.913	15.76	0.031511	311.162	51.2821
12:21:13.923	15.77	0.0245778	311.163	51.2821
12:21:13.933	15.78	0.00885294	311.163	51.2821
12:21:13.943	15.79	-0.0105272	311.163	51.2821
12:21:13.953	15.8	-0.0258133	311.163	51.2821
12:21:13.963	15.81	-0.0380577	311.163	51.2821
12:21:13.973	15.82	-0.0475719	311.163	51.2821
12:21:13.983	15.83	-0.0537966	311.163	51.2821
12:21:13.993	15.84	-0.0579689	311.163	51.2821
12:21:14.003	15.85	-0.0511978	311.163	51.2821
12:21:14.013	15.86	-0.035043	311.164	51.2821
12:21:14.023	15.87	-0.0204246	311.164	51.2821
12:21:14.033	15.88	-0.0114964	311.164	51.2821
12:21:14.043	15.89	-0.00438581	311.164	51.2821
12:21:14.053	15.9	0.000209087	311.164	51.2821
12:21:14.063	15.91	0.00220062	311.164	51.2821
12:21:14.073	15.92	0.00376528	311.164	51.2821
12:21:14.083	15.93	0.0151895	311.164	51.2821
12:21:14.093	15.94	0.0168027	311.164	51.2821
12:21:14.103	15.95	0.00830148	311.164	51.2821
12:21:14.113	15.96	-0.00285272	311.164	51.2821
12:21:14.123	15.97	-0.0124589	311.164	51.2821
12:21:14.133	15.98	-0.0248363	311.164	51.2821
12:21:14.143	15.99	-0.0405016	311.164	51.2821
12:21:14.153	16	-0.0559055	311.164	51.2821
12:21:14.163	16.01	-0.0636691	311.164	51.2821
12:21:14.173	16.02	-0.06096	311.164	51.2821
12:21:14.183	16.03	-0.048897	311.164	51.2821
12:21:14.193	16.04	-0.0302004	311.164	51.2821
12:21:14.203	16.05	-0.0107174	311.164	51.2821
12:21:14.212	16.06	0.00440897	311.164	51.2821
12:21:14.223	16.07	0.0201013	311.164	51.2821
12:21:14.232	16.08	0.0261035	311.164	51.2821
12:21:14.243	16.09	0.0236355	311.163	51.2821
12:21:14.253	16.1	0.0173039	311.163	51.2821
12:21:14.263	16.11	0.0105323	311.163	51.2821
12:21:14.273	16.12	0.00302626	311.163	51.2821
12:21:14.282	16.13	-0.00513179	311.163	51.2821
12:21:14.293	16.14	-0.0153809	311.163	51.2821
12:21:14.302	16.15	-0.0313761	311.163	51.2821
12:21:14.313	16.16	-0.0488717	311.163	51.2821
12:21:14.323	16.17	-0.0592904	311.163	51.2821
12:21:14.333	16.18	-0.0589157	311.163	51.2821
12:21:14.343	16.19	-0.0516356	311.163	51.2821
12:21:14.353	16.2	-0.0466489	311.163	51.2821
12:21:14.363	16.21	-0.0441686	311.163	51.2821
12:21:14.372	16.22	-0.0319279	311.163	51.2821
12:21:14.383	16.23	-0.0090258	311.164	51.2821
12:21:14.392	16.24	0.0171853	311.164	51.2821
12:21:14.403	16.25	0.038395	311.164	51.2821
12:21:14.413	16.26	0.0472637	311.164	51.2821
12:21:14.423	16.27	0.0379028	311.164	51.2821
12:21:14.433	16.28	0.0204906	311.164	51.2821
12:21:14.443	16.29	0.00127852	311.165	51.2821
12:21:14.453	16.3	-0.0163439	311.165	51.2821
12:21:14.462	16.31	-0.0330003	311.165	51.2821
12:21:14.473	16.32	-0.0410622	311.166	51.2821
12:21:14.482	16.33	-0.0412507	311.166	51.2821
12:21:14.493	16.34	-0.0466999	311.166	51.2821
12:21:14.503	16.35	-0.0401262	311.167	51.2821
12:21:14.513	16.36	-0.01488	311.167	51.2821
12:21:14.523	16.37	0.0238196	311.168	51.2821
12:21:14.532	16.38	0.0698811	311.168	51.2821
12:21:14.543	16.39	0.115101	311.169	51.2821
12:21:14.553	16.4	0.148508	311.17	51.2821
12:21:14.563	16.41	0.160159	311.17	19.7368
12:21:14.573	16.42	0.155033	311.171	19.7368
12:21:14.583	16.43	0.13485	311.172	19.7368
12:21:14.593	16.44	0.111803	311.172	19.7368
12:21:14.603	16.45	0.0922672	311.173	19.7368
12:21:14.613	16.46	0.0688528	311.174	19.7368
12:21:14.623	16.47	0.0445494	311.175	19.7368
12:21:14.633	16.48	0.0244615	311.175	19.7368
12:21:14.643	16.49	0.0059493	311.176	19.7368
12:21:14.653	16.5	-0.00930303	311.177	19.7368
12:21:14.663	16.51	-0.0153378	311.178	19.7368
12:21:14.673	16.52	-0.0178098	311.179	19.7368
12:21:14.683	16.53	-0.0207641	311.18	19.7368
12:21:14.693	16.54	-0.0240528	311.181	19.7368
12:21:14.703	16.55	-0.0264654	311.182	19.7368
12:21:14.713	16.56	-0.0251671	311.183	19.7368
12:21:14.723	16.57	-0.0148744	311.184	19.7368
12:21:14.733	16.58	-0.00211112	311.186	19.7368
12:21:14.743	16.59	-0.00576466	311.187	19.7368
12:21:14.753	16.6	-0.0140033	311.188	19.7368
12:21:14.763	16.61	-0.0114963	311.189	19.7368
12:21:14.773	16.62	-0.00497526	311.19	19.7368
12:21:14.783	16.63	0.00216759	311.191	19.7368
12:21:14.793	16.64	0.0111004	311.193	19.7368
12:21:14.803	16.65	0.0213776	311.194	19.7368
12:21:14.813	16.66	0.0276231	311.195	19.7368
12:21:14.823	16.67	0.0232357	311.197	19.7368
12:21:14.833	16.68	0.0134333	311.198	19.7368
12:21:14.843	16.69	0.00800656	311.199	19.7368
12:21:14.853	16.7	0.00695498	311.201	19.7368
12:21:14.863	16.71	0.0116333	311.202	19.7368
12:21:14.873	16.72	0.0186763	311.203	19.7368
12:21:14.883	16.73	0.018185	311.205	19.7368
12:21:14.893	16.74	0.00921942	311.206	19.7368
12:21:14.903	16.75	5.81454e-05	311.207	19.7368
12:21:14.913	16.76	-0.00763666	311.209	19.7368
12:21:14.923	16.77	-0.0171289	311.21	19.7368
12:21:14.933	16.78	-0.0240235	311.212	19.7368
12:21:14.943	16.79	-0.0232152	311.213	19.7368
12:21:14.953	16.8	-0.0204735	311.214	19.7368
12:21:14.963	16.81	-0.0192406	311.216	19.7368
12:21:14.973	16.82	-0.0178288	311.217	19.7368
12:21:14.983	16.83	-0.0126813	311.219	19.7368
12:21:14.993	16.84	-0.00672763	311.22	19.7368
12:21:15.003	16.85	-0.00656064	311.221	19.7368
12:21:15.013	16.86	-0.0126253	311.223	19.7368
12:21:15.023	16.87	-0.0152989	311.224	19.7368
12:21:15.033	16.88	-0.0152166	311.225	19.7368
12:21:15.043	16.89	-0.0145438	311.227	19.7368
12:21:15.053	16.9	-0.0166342	311.228	19.7368
12:21:15.063	16.91	-0.0138292	311.229	19.7368
12:21:15.073	16.92	-0.0106522	311.231	19.7368
12:21:15.083	16.93	-0.00814568	311.232	19.7368
12:21:15.093	16.94	-0.00354236	311.233	19.7368
12:21:15.103	16.95	0.00103511	311.235	19.7368
12:21:15.113	16.96	-0.00477599	311.236	19.7368
12:21:15.123	16.97	-0.0123383	311.237	19.7368
12:21:15.133	16.98	-0.015807	311.239	19.7368
12:21:15.143	16.99	-0.0165913	311.24	19.7368
12:21:15.153	17	-0.0101766	311.241	19.7368
12:21:15.163	17.01	-0.00557288	311.242	19.7368
12:21:15.173	17.02	-0.00671934	311.244	19.7368
12:21:15.183	17.03	-0.00714172	311.245	19.7368
12:21:15.193	17.04	-0.00628113	311.246	19.7368
12:21:15.203	17.05	-0.00520061	311.247	19.7368
12:21:15.213	17.06	-0.00289647	311.248	19.7368
12:21:15.223	17.07	-0.00237206	311.249	19.7368
12:21:15.233	17.08	-0.00661047	311.25	19.7368
12:21:15.243	17.09	-0.0134281	311.252	19.7368
12:21:15.253	17.1	-0.0170858	311.253	19.7368
12:21:15.263	17.11	-0.018658	311.254	19.7368
12:21:15.273	17.12	-0.0223959	311.255	19.7368
12:21:15.283	17.13	-0.0310438	311.256	19.7368
12:21:15.293	17.14	-0.0409514	311.257	19.7368
12:21:15.303	17.15	-0.0403836	311.258	19.7368
12:21:15.313	17.16	-0.0355682	311.259	19.7368
12:21:15.323	17.17	-0.0250094	311.26	19.7368
12:21:15.333	17.18	-0.0123881	311.261	19.7368
12:21:15.343	17.19	-0.00288398	311.261	19.7368
12:21:15.353	17.2	0.00306858	311.262	19.7368
12:21:15.363	17.21	0.0106493	311.263	19.7368
12:21:15.373	17.22	0.00948307	311.264	19.7368
12:21:15.383	17.23	0.00418934	311.265	19.7368
12:21:15.393	17.24	-0.000201061	311.266	19.7368
12:21:15.403	17.25	-0.00749886	311.266	19.7368
12:21:15.413	17.26	-0.0199249	311.267	19.7368
12:21:15.423	17.27	-0.0320985	311.268	19.7368
12:21:15.433	17.28	-0.0382315	311.269	19.7368
12:21:15.443	17.29	-0.0445015	311.269	19.7368
12:21:15.453	17.3	-0.0356083	311.27	19.7368
12:21:15.463	17.31	-0.0210403	311.271	19.7368
12:21:15.473	17.32	-0.00626578	311.271	19.7368
12:21:15.483	17.33	0.00155439	311.272	19.7368
12:21:15.493	17.34	0.00215044	311.273	19.7368
12:21:15.503	17.35	-0.0129438	311.273	19.7368
12:21:15.513	17.36	-0.0310777	311.274	19.7368
12:21:15.523	17.37	-0.0287464	311.274	19.7368
12:21:15.533	17.38	-0.0148445	311.275	19.7368
12:21:15.543	17.39	-0.00944654	311.276	19.7368
12:21:15.553	17.4	-0.0059352	311.276	19.7368
12:21:15.563	17.41	0.000918083	311.277	19.7368
12:21:15.573	17.42	0.0110008	311.277	19.7368
12:21:15.583	17.43	0.0246195	311.277	19.7368
12:21:15.593	17.44	0.046599	311.278	19.7368
12:21:15.603	17.45	0.0797167	311.278	19.7368
12:21:15.613	17.46	0.101333	311.279	19.7368
12:21:15.623	17.47	0.106686	311.279	19.7368
12:21:15.633	17.48	0.0957467	311.28	19.7368
12:21:15.643	17.49	0.0686702	311.28	19.7368
12:21:15.653	17.5	0.0469892	311.28	19.7368
12:21:15.663	17.51	0.038763	311.281	19.7368
12:21:15.673	17.52	0.0311728	311.281	19.7368
12:21:15.683	17.53	0.0289325	311.281	19.7368
12:21:15.693	17.54	0.0334437	311.282	19.7368
12:21:15.703	17.55	0.036407	311.282	19.7368
12:21:15.713	17.56	0.0355916	311.282	19.7368
12:21:15.723	17.57	0.0308085	311.282	19.7368
12:21:15.733	17.58	0.0226301	311.283	19.7368
12:21:15.743	17.59	0.00284623	311.283	19.7368
12:21:15.753	17.6	-0.0172451	311.283	19.7368
12:21:15.763	17.61	-0.017379	311.284	19.7368
12:21:15.773	17.62	-0.0101975	311.284	19.7368
12:21:15.783	17.63	-0.0173659	311.284	19.7368
12:21:15.793	17.64	-0.0294593	311.284	19.7368
12:21:15.803	17.65	-0.0369058	311.285	19.7368
12:21:15.813	17.66	-0.0472262	311.285	19.7368
12:21:15.823	17.67	-0.0587487	311.285	19.7368
12:21:15.833	17.68	-0.0604228	311.285	19.7368
12:21:15.843	17.69	-0.0498524	311.286	19.7368
12:21:15.853	17.7	-0.0320064	311.286	19.7368
12:21:15.863	17.71	-0.00880408	311.286	19.7368
12:21:15.873	17.72	0.0104635	311.286	19.7368
12:21:15.883	17.73	0.0239247	311.287	19.7368
12:21:15.893	17.74	0.0328202	311.287	19.7368
12:21:15.903	17.75	0.0380606	311.287	19.7368
12:21:15.913	17.76	0.0452387	311.287	19.7368
12:21:15.923	17.77	0.0519785	311.288	19.7368
12:21:15.933	17.78	0.045712	311.288	19.7368
12:21:15.943	17.79	0.0208735	311.288	19.7368
12:21:15.953	17.8	-0.0124149	311.289	19.7368
12:21:15.963	17.81	-0.0501522	311.289	19.7368
12:21:15.973	17.82	-0.0764576	311.289	19.7368
12:21:15.983	17.83	-0.0796393	311.29	19.7368
12:21:15.993	17.84	-0.0661093	311.29	19.7368
12:21:16.003	17.85	-0.0491162	311.29	19.7368
12:21:16.013	17.86	-0.0299498	311.291	19.7368
12:21:16.023	17.87	-0.00450089	311.291	19.7368
12:21:16.033	17.88	0.0127287	311.292	19.7368
12:21:16.043	17.89	0.00759182	311.292	19.7368
12:21:16.053	17.9	-0.00646109	311.293	19.7368
12:21:16.063	17.91	-0.0213386	311.293	19.7368
12:21:16.073	17.92	-0.036114	311.294	19.7368
12:21:16.083	17.93	-0.041976	311.294	19.7368
12:21:16.093	17.94	-0.0411022	311.295	19.7368
12:21:16.103	17.95	-0.0405147	311.295	19.7368
12:21:16.113	17.96	-0.0413373	311.296	19.7368
12:21:16.123	17.97	-0.03142	311.296	19.7368
12:21:16.133	17.98	-0.0178045	311.297	19.7368
12:21:16.143	17.99	-0.00948167	311.298	19.7368
12:21:16.153	18	-0.0054161	311.298	19.7368
12:21:16.163	18.01	-0.00235052	311.299	19.7368
12:21:16.173	18.02	-0.00118446	311.3	19.7368
12:21:16.183	18.03	-0.00202848	311.3	19.7368
12:21:16.193	18.04	-0.00360901	311.301	19.7368
12:21:16.203	18.05	-0.00467145	311.302	19.7368
12:21:16.213	18.06	-0.00806592	311.303	19.7368
12:21:16.223	18.07	-0.00869161	311.304	19.7368
12:21:16.233	18.08	-0.0157382	311.305	19.7368
12:21:16.243	18.09	-0.0211923	311.306	19.7368
12:21:16.253	18.1	-0.0312419	311.306	19.7368
12:21:16.263	18.11	-0.0408048	311.307	19.7368
12:21:16.273	18.12	-0.0424805	311.308	19.7368
12:21:16.283	18.13	-0.0374573	311.309	19.7368
12:21:16.293	18.14	-0.0317011	311.31	19.7368
12:21:16.303	18.15	-0.0309934	311.311	19.7368
12:21:16.313	18.16	-0.0323245	311.312	19.7368
12:21:16.323	18.17	-0.0277371	311.314	19.7368
12:21:16.333	18.18	-0.0151446	311.315	19.7368
12:21:16.343	18.19	-0.0039888	311.316	19.7368
12:21:16.353	18.2	0.00818161	311.317	19.7368
12:21:16.363	18.21	0.020816	311.318	19.7368
12:21:16.373	18.22	0.0251837	311.319	19.7368
12:21:16.383	18.23	0.0170531	311.321	19.7368
12:21:16.393	18.24	-0.00437507	311.322	19.7368
12:21:16.403	18.25	-0.0238054	311.323	19.7368
12:21:16.413	18.26	-0.0378315	311.324	19.7368
12:21:16.423	18.27	-0.0437487	311.326	19.7368
12:21:16.433	18.28	-0.046084	311.327	19.7368
12:21:16.443	18.29	-0.0497712	311.328	19.7368
12:21:16.453	18.3	-0.0493138	311.33	19.7368
12:21:16.463	18.31	-0.0489231	311.331	19.7368
12:21:16.473	18.32	-0.0493426	311.332	19.7368
12:21:16.483	18.33	-0.0412958	311.334	19.7368
12:21:16.493	18.34	-0.0175654	311.335	19.7368
12:21:16.503	18.35	0.0087107	311.336	19.7368
12:21:16.513	18.36	0.0271286	311.338	19.7368
12:21:16.523	18.37	0.0446718	311.339	19.7368
12:21:16.533	18.38	0.0611068	311.34	19.7368
12:21:16.543	18.39	0.0737416	311.342	19.7368
12:21:16.553	18.4	0.0840287	311.343	19.7368
12:21:16.563	18.41	0.0954719	311.345	19.7368
12:21:16.573	18.42	0.108825	311.346	19.7368
12:21:16.583	18.43	0.113994	311.347	19.7368
12:21:16.593	18.44	0.110974	311.349	19.7368
12:21:16.603	18.45	0.102491	311.35	19.7368
12:21:16.613	18.46	0.0877791	311.352	19.7368
12:21:16.623	18.47	0.0726351	311.353	19.7368
12:21:16.633	18.48	0.0566727	311.354	19.7368
12:21:16.643	18.49	0.0438686	311.356	19.7368
12:21:16.653	18.5	0.0380051	311.357	19.7368
12:21:16.663	18.51	0.0335903	311.359	19.7368
12:21:16.673	18.52	0.027471	311.36	19.7368
12:21:16.683	18.53	0.0170982	311.361	19.7368
12:21:16.693	18.54	0.00838699	311.363	19.7368
12:21:16.703	18.55	0.00299669	311.364	19.7368
12:21:16.713	18.56	0.0049317	311.365	19.7368
12:21:16.723	18.57	0.00867268	311.367	19.7368
12:21:16.733	18.58	-0.0034457	311.368	19.7368
12:21:16.743	18.59	-0.0189458	311.369	19.7368
12:21:16.753	18.6	-0.0296835	311.371	19.7368
12:21:16.763	18.61	-0.0401744	311.372	19.7368
12:21:16.773	18.62	-0.0482882	311.373	19.7368
12:21:16.783	18.63	-0.0450398	311.374	19.7368
12:21:16.793	18.64	-0.0260578	311.376	19.7368
12:21:16.803	18.65	0.0071939	311.377	19.7368
12:21:16.813	18.66	0.0365163	311.378	19.7368
12:21:16.823	18.67	0.0575904	311.379	19.7368
12:21:16.833	18.68	0.0663055	311.38	19.7368
12:21:16.843	18.69	0.0666508	311.382	19.7368
12:21:16.853	18.7	0.0599998	311.383	19.7368
12:21:16.863	18.71	0.0436852	311.384	19.7368
12:21:16.873	18.72	0.0190153	311.385	19.7368
12:21:16.883	18.73	-0.0020556	311.386	19.7368
12:21:16.893	18.74	-0.0156765	311.387	19.7368
12:21:16.903	18.75	-0.0214934	311.388	19.7368
12:21:16.913	18.76	-0.0226767	311.389	19.7368
12:21:16.923	18.77	-0.0289558	311.39	19.7368
12:21:16.933	18.78	-0.035573	311.391	19.7368
12:21:16.943	18.79	-0.0378984	311.392	19.7368
12:21:16.953	18.8	-0.0260281	311.393	19.7368
12:21:16.963	18.81	-0.0117244	311.394	19.7368
12:21:16.973	18.82	-0.00886414	311.395	19.7368
12:21:16.983	18.83	-0.00824741	311.396	19.7368
12:21:16.993	18.84	-0.0124583	311.397	19.7368
12:21:17.003	18.85	-0.0249346	311.398	19.7368
12:21:17.013	18.86	-0.0475161	311.398	19.7368
12:21:17.023	18.87	-0.0588456	311.399	19.7368
12:21:17.033	18.88	-0.0595672	311.4	19.7368
12:21:17.043	18.89	-0.0580056	311.401	19.7368
12:21:17.053	18.9	-0.0505652	311.402	19.7368
12:21:17.063	18.91	-0.0374278	311.402	19.7368
12:21:17.073	18.92	-0.0213871	311.403	19.7368
12:21:17.083	18.93	-0.00069489	311.404	19.7368
12:21:17.093	18.94	0.0182872	311.405	19.7368
12:21:17.103	18.95	0.0310907	311.405	19.7368
12:21:17.113	18.96	0.0344551	311.406	19.7368
12:21:17.123	18.97	0.0299371	311.407	19.7368
12:21:17.133	18.98	0.0223954	311.407	19.7368
12:21:17.143	18.99	0.0127785	311.408	19.7368
12:21:17.153	19	-0.00560759	311.408	19.7368
12:21:17.163	19.01	-0.0242394	311.409	19.7368
12:21:17.173	19.02	-0.0398888	311.41	19.7368
12:21:17.183	19.03	-0.0466298	311.41	19.7368
12:21:17.193	19.04	-0.0371355	311.411	19.7368
12:21:17.203	19.05	-0.0183106	311.411	19.7368
12:21:17.213	19.06	0.0141754	311.412	19.7368
12:21:17.223	19.07	0.0522513	311.412	19.7368
12:21:17.233	19.08	0.0698134	311.413	19.7368
12:21:17.243	19.09	0.0690036	311.413	19.7368
12:21:17.253	19.1	0.0668089	311.413	19.7368
12:21:17.263	19.11	0.0490794	311.414	19.7368
12:21:17.273	19.12	0.0102318	311.414	19.7368
12:21:17.283	19.13	-0.0336019	311.415	19.7368
12:21:17.293	19.14	-0.0591663	311.415	19.7368
12:21:17.303	19.15	-0.0684962	311.415	19.7368
12:21:17.313	19.16	-0.0630196	311.416	19.7368
12:21:17.323	19.17	-0.0521232	311.416	19.7368
12:21:17.333	19.18	-0.0362422	311.416	19.7368
12:21:17.343	19.19	-0.0276525	311.417	19.7368
12:21:17.353	19.2	-0.0281964	311.417	19.7368
12:21:17.363	19.21	-0.0342879	311.417	19.7368
12:21:17.373	19.22	-0.0360501	311.417	19.7368
12:21:17.383	19.23	-0.0421506	311.418	19.7368
12:21:17.393	19.24	-0.0532538	311.418	19.7368
12:21:17.403	19.25	-0.0594624	311.418	19.7368
12:21:17.413	19.26	-0.0553573	311.418	19.7368
12:21:17.423	19.27	-0.0284104	311.419	19.7368
12:21:17.433	19.28	0.0087569	311.419	19.7368
12:21:17.443	19.29	0.0293257	311.419	19.7368
12:21:17.453	19.3	0.03342	311.419	19.7368
12:21:17.463	19.31	0.0364474	311.419	19.7368
12:21:17.473	19.32	0.0329714	311.42	19.7368
12:21:17.483	19.33	0.0171351	311.42	19.7368
12:21:17.493	19.34	-0.00717702	311.42	19.7368
12:21:17.503	19.35	-0.0339256	311.42	19.7368
12:21:17.513	19.36	-0.0533533	311.42	19.7368
12:21:17.523	19.37	-0.0538774	311.421	19.7368
12:21:17.533	19.38	-0.0343353	311.421	19.7368
12:21:17.543	19.39	-0.0014937	311.421	19.7368
12:21:17.553	19.4	0.0337709	311.421	19.7368
12:21:17.563	19.41	0.0652828	311.421	19.7368
12:21:17.573	19.42	0.0917528	311.422	19.7368
12:21:17.583	19.43	0.122899	311.422	19.7368
12:21:17.593	19.44	0.149821	311.422	19.7368
12:21:17.603	19.45	0.156419	311.422	57.1429
12:21:17.613	19.46	0.133392	311.422	57.1429
12:21:17.623	19.47	0.101624	311.423	57.1429
12:21:17.633	19.48	0.0814599	311.423	57.1429
12:21:17.643	19.49	0.0658512	311.423	57.1429
12:21:17.653	19.5	0.042629	311.423	57.1429
12:21:17.663	19.51	0.0180994	311.423	57.1429
12:21:17.673	19.52	-0.000164958	311.424	57.1429
12:21:17.683	19.53	-0.00841189	311.424	57.1429
12:21:17.693	19.54	-0.00624974	311.424	57.1429
12:21:17.703	19.55	-0.00462322	311.425	57.1429
12:21:17.713	19.56	-0.00995495	311.425	57.1429
12:21:17.723	19.57	-0.0217608	311.425	57.1429
12:21:17.733	19.58	-0.0365067	311.426	57.1429
12:21:17.743	19.59	-0.0486353	311.426	57.1429
12:21:17.753	19.6	-0.0550168	311.426	57.1429
12:21:17.763	19.61	-0.0597488	311.427	57.1429
12:21:17.773	19.62	-0.0562398	311.427	57.1429
12:21:17.783	19.63	-0.0418416	311.428	57.1429
12:21:17.793	19.64	-0.0260704	311.428	57.1429
12:21:17.803	19.65	-0.00887036	311.429	57.1429
12:21:17.813	19.66	0.0104798	311.429	57.1429
12:21:17.823	19.67	0.0240076	311.43	57.1429
12:21:17.833	19.68	0.0323947	311.43	57.1429
12:21:17.843	19.69	0.0319468	311.431	57.1429
12:21:17.853	19.7	0.0195608	311.431	57.1429
12:21:17.863	19.71	0.0025484	311.432	57.1429
12:21:17.873	19.72	-0.0174861	311.433	57.1429
12:21:17.883	19.73	-0.0308739	311.434	57.1429
12:21:17.893	19.74	-0.0345936	311.434	57.1429
12:21:17.903	19.75	-0.0273246	311.435	57.1429
12:21:17.913	19.76	-0.00943489	311.436	57.1429
12:21:17.923	19.77	0.0021518	311.437	57.1429
12:21:17.933	19.78	-0.00369939	311.438	57.1429
12:21:17.943	19.79	-0.0186755	311.439	57.1429
12:21:17.953	19.8	-0.0273992	311.439	57.1429
12:21:17.963	19.81	-0.0286945	311.44	57.1429
12:21:17.973	19.82	-0.0167706	311.441	57.1429
12:21:17.983	19.83	0.00313515	311.442	57.1429
12:21:17.993	19.84	0.00664883	311.443	57.1429
12:21:18.003	19.85	0.00949438	311.445	57.1429
12:21:18.013	19.86	0.0205014	311.446	57.1429
12:21:18.023	19.87	0.027895	311.447	57.1429
12:21:18.033	19.88	0.0287257	311.448	57.1429
12:21:18.043	19.89	0.0158677	311.449	57.1429
12:21:18.053	19.9	-0.0259867	311.45	57.1429
12:21:18.063	19.91	-0.043968	311.451	57.1429
12:21:18.073	19.92	-0.0500587	311.453	57.1429
12:21:18.083	19.93	-0.0147551	311.454	57.1429
12:21:18.093	19.94	0.00583351	311.455	57.1429
12:21:18.103	19.95	0.0395794	311.456	57.1429
12:21:18.113	19.96	0.0808834	311.458	57.1429
12:21:18.123	19.97	0.0846907	311.459	57.1429
12:21:18.133	19.98	0.0411707	311.46	57.1429
12:21:18.143	19.99	0.00407422	311.462	57.1429
12:21:18.153	20	-0.0143188	311.463	57.1429
12:21:18.163	20.01	-0.0490409	311.465	57.1429
12:21:18.173	20.02	-0.0742346	311.466	57.1429
12:21:18.183	20.03	-0.0875056	311.467	57.1429
12:21:18.193	20.04	-0.0877927	311.469	57.1429
12:21:18.203	20.05	-0.0719259	311.47	57.1429
12:21:18.213	20.06	-0.0378905	311.472	57.1429
12:21:18.223	20.07	-0.00827918	311.473	57.1429
12:21:18.233	20.08	0.0124376	311.474	57.1429
12:21:18.243	20.09	0.0197528	311.476	57.1429
12:21:18.253	20.1	0.0232546	311.477	57.1429
12:21:18.263	20.11	0.0297622	311.479	57.1429
12:21:18.273	20.12	0.0392883	311.48	57.1429
12:21:18.283	20.13	0.0496531	311.482	57.1429
12:21:18.293	20.14	0.045167	311.483	57.1429
12:21:18.303	20.15	0.0316009	311.485	57.1429
12:21:18.313	20.16	0.0192283	311.486	57.1429
12:21:18.323	20.17	0.00151728	311.488	57.1429
12:21:18.333	20.18	-0.0185531	311.489	57.1429
12:21:18.343	20.19	-0.034027	311.49	57.1429
12:21:18.353	20.2	-0.0409232	311.492	57.1429
12:21:18.363	20.21	-0.0516011	311.493	57.1429
12:21:18.373	20.22	-0.0434915	311.495	57.1429
12:21:18.383	20.23	-0.0196017	311.496	57.1429
12:21:18.393	20.24	0.00966694	311.498	57.1429
12:21:18.403	20.25	0.0388411	311.499	57.1429
12:21:18.413	20.26	0.0508221	311.5	57.1429
12:21:18.423	20.27	0.0508098	311.502	57.1429
12:21:18.433	20.28	0.0481356	311.503	57.1429
12:21:18.443	20.29	0.0437276	311.504	57.1429
12:21:18.453	20.3	0.0285003	311.506	57.1429
12:21:18.463	20.31	0.00115293	311.507	57.1429
12:21:18.473	20.32	-0.0173342	311.508	57.1429
12:21:18.483	20.33	-0.0130554	311.51	57.1429
12:21:18.493	20.34	-0.00134574	311.511	57.1429
12:21:18.503	20.35	0.00198172	311.512	57.1429
12:21:18.513	20.36	-0.00431997	311.514	57.1429
12:21:18.523	20.37	-0.00645704	311.515	57.1429
12:21:18.533	20.38	-0.00759818	311.516	57.1429
12:21:18.543	20.39	-0.0109075	311.517	57.1429
12:21:18.553	20.4	-0.0192335	311.518	57.1429
12:21:18.563	20.41	-0.0309237	311.52	57.1429
12:21:18.573	20.42	-0.0462579	311.521	57.1429
12:21:18.583	20.43	-0.0506316	311.522	57.1429
12:21:18.593	20.44	-0.0385053	311.523	57.1429
12:21:18.603	20.45	-0.00672606	311.524	57.1429
12:21:18.613	20.46	0.0356009	311.525	57.1429
12:21:18.623	20.47	0.0789759	311.526	57.1429
12:21:18.633	20.48	0.119513	311.527	57.1429
12:21:18.643	20.49	0.148089	311.528	57.1429
12:21:18.653	20.5	0.167143	311.529	48
12:21:18.663	20.51	0.162992	311.53	48
12:21:18.673	20.52	0.144005	311.531	48
12:21:18.683	20.53	0.117068	311.532	48
12:21:18.693	20.54	0.0819958	311.533	48
12:21:18.703	20.55	0.0415835	311.534	48
12:21:18.713	20.56	0.00796598	311.535	48
12:21:18.723	20.57	-0.0130533	311.536	48
12:21:18.733	20.58	-0.0204825	311.537	48
12:21:18.743	20.59	-0.0193156	311.538	48
12:21:18.753	20.6	-0.0149527	311.539	48
12:21:18.763	20.61	-0.00843203	311.54	48
12:21:18.773	20.62	0.0016668	311.541	48
12:21:18.783	20.63	0.00512986	311.542	48
12:21:18.793	20.64	0.00077795	311.542	48
12:21:18.803	20.65	-0.00958764	311.543	48
12:21:18.813	20.66	-0.0267904	311.544	48
12:21:18.823	20.67	-0.0462546	311.545	48
12:21:18.833	20.68	-0.0570983	311.546	48
12:21:18.843	20.69	-0.0642637	311.547	48
12:21:18.853	20.7	-0.0677119	311.548	48
12:21:18.863	20.71	-0.0552443	311.548	48
12:21:18.873	20.72	-0.0359612	311.549	48
12:21:18.883	20.73	-0.0137813	311.55	48
12:21:18.893	20.74	0.0100423	311.551	48
12:21:18.903	20.75	0.0244323	311.552	48
12:21:18.913	20.76	0.0294808	311.553	48
12:21:18.923	20.77	0.0267544	311.554	48
12:21:18.933	20.78	0.0159742	311.555	48
12:21:18.943	20.79	0.00823374	311.555	48
12:21:18.953	20.8	0.00439874	311.556	48
12:21:18.963	20.81	-0.00580123	311.557	48
12:21:18.973	20.82	-0.0229643	311.558	48
12:21:18.983	20.83	-0.0353135	311.559	48
12:21:18.993	20.84	-0.037397	311.56	48
12:21:19.003	20.85	-0.0403767	311.561	48
12:21:19.013	20.86	-0.0351461	311.562	48
12:21:19.023	20.87	-0.00955333	311.563	48
12:21:19.033	20.88	0.020386	311.564	48
12:21:19.043	20.89	0.0371261	311.565	48
12:21:19.053	20.9	0.053371	311.567	48
12:21:19.063	20.91	0.0627328	311.568	48
12:21:19.073	20.92	0.0578481	311.569	48
12:21:19.083	20.93	0.0427021	311.57	48
12:21:19.093	20.94	0.0233651	311.571	48
12:21:19.103	20.95	0.00116713	311.572	48
12:21:19.113	20.96	-0.0207739	311.573	48
12:21:19.123	20.97	-0.0329678	311.574	48
12:21:19.133	20.98	-0.0360374	311.576	48
12:21:19.143	20.99	-0.03574	311.577	48
12:21:19.153	21	-0.0316112	311.578	48
12:21:19.163	21.01	-0.0292104	311.579	48
12:21:19.173	21.02	-0.0287536	311.58	48
12:21:19.183	21.03	-0.0259501	311.581	48
12:21:19.193	21.04	-0.0198869	311.583	48
12:21:19.203	21.05	-0.0130961	311.584	48
12:21:19.213	21.06	-0.0104934	311.585	48
12:21:19.223	21.07	-0.0169994	311.586	48
12:21:19.233	21.08	-0.030606	311.587	48
12:21:19.243	21.09	-0.0437223	311.589	48
12:21:19.253	21.1	-0.0454297	311.59	48
12:21:19.263	21.11	-0.0378526	311.591	48
12:21:19.273	21.12	-0.0301759	311.592	48
12:21:19.283	21.13	-0.0216145	311.593	48
12:21:19.293	21.14	-0.01098	311.595	48
12:21:19.303	21.15	0.000488087	311.596	48
12:21:19.313	21.16	0.0149196	311.597	48
12:21:19.323	21.17	0.0250151	311.598	48
12:21:19.333	21.18	0.0265006	311.599	48
12:21:19.343	21.19	0.0228394	311.601	48
12:21:19.353	21.2	0.0110163	311.602	48
12:21:19.363	21.21	-0.0158666	311.603	48
12:21:19.373	21.22	-0.049955	311.604	48
12:21:19.383	21.23	-0.08044	311.605	48
12:21:19.393	21.24	-0.100565	311.607	48
12:21:19.403	21.25	-0.112777	311.608	48
12:21:19.413	21.26	-0.107816	311.609	48
12:21:19.423	21.27	-0.0825671	311.61	48
12:21:19.433	21.28	-0.0469362	311.611	48
12:21:19.443	21.29	-0.0150049	311.613	48
12:21:19.453	21.3	0.00342615	311.614	48
12:21:19.463	21.31	0.0133947	311.615	48
12:21:19.473	21.32	0.0087818	311.616	48
12:21:19.483	21.33	-0.0133399	311.617	48
12:21:19.493	21.34	-0.0312742	311.619	48
12:21:19.503	21.35	-0.0339458	311.62	48
12:21:19.513	21.36	-0.0243342	311.621	48
12:21:19.523	21.37	-0.0116359	311.622	48
12:21:19.533	21.38	0.00448953	311.623	48
12:21:19.543	21.39	0.0168307	311.624	48
12:21:19.553	21.4	0.0253692	311.626	48
12:21:19.563	21.41	0.0306738	311.627	48
12:21:19.573	21.42	0.0345753	311.628	48
12:21:19.583	21.43	0.042728	311.629	48
12:21:19.593	21.44	0.0574958	311.63	48
12:21:19.603	21.45	0.0691498	311.631	48
12:21:19.613	21.46	0.0727057	311.633	48
12:21:19.623	21.47	0.0647631	311.634	48
12:21:19.633	21.48	0.0530203	311.635	48
12:21:19.643	21.49	0.0399053	311.636	48
12:21:19.653	21.5	0.0314554	311.637	48
12:21:19.663	21.51	0.0160445	311.638	48
12:21:19.673	21.52	0.00283468	311.639	48
12:21:19.683	21.53	0.00848876	311.64	48
12:21:19.693	21.54	0.0237165	311.641	48
12:21:19.703	21.55	0.0173598	311.642	48
12:21:19.713	21.56	0.0197978	311.643	48
12:21:19.723	21.57	-0.0020875	311.645	48
12:21:19.733	21.58	-0.0255329	311.646	48
12:21:19.743	21.59	-0.0481057	311.647	48
12:21:19.753	21.6	-0.0734331	311.648	48
12:21:19.763	21.61	-0.0883057	311.649	48
12:21:19.773	21.62	-0.0805563	311.65	48
12:21:19.783	21.63	-0.0505469	311.651	48
12:21:19.793	21.64	-0.0124295	311.652	48
12:21:19.803	21.65	0.0160324	311.653	48
12:21:19.813	21.66	0.0399536	311.654	48
12:21:19.823	21.67	0.0484689	311.655	48
12:21:19.833	21.68	0.04716	311.655	48
12:21:19.843	21.69	0.0473192	311.656	48
12:21:19.853	21.7	0.0506862	311.657	48
12:21:19.863	21.71	0.0779553	311.658	48
12:21:19.873	21.72	0.116368	311.659	48
12:21:19.883	21.73	0.133534	311.66	48
12:21:19.893	21.74	0.149616	311.661	48
12:21:19.903	21.75	0.156404	311.662	50
12:21:19.913	21.76	0.147354	311.662	50
12:21:19.923	21.77	0.117293	311.663	50
12:21:19.933	21.78	0.0908815	311.664	50
12:21:19.943	21.79	0.0718604	311.665	50
12:21:19.953	21.8	0.0494514	311.666	50
12:21:19.963	21.81	0.0267129	311.666	50
12:21:19.973	21.82	-0.00313565	311.667	50
12:21:19.983	21.83	-0.0317851	311.668	50
12:21:19.993	21.84	-0.0529306	311.669	50
12:21:20.003	21.85	-0.0753151	311.669	50
12:21:20.013	21.86	-0.0971507	311.67	50
12:21:20.023	21.87	-0.104341	311.671	50
12:21:20.033	21.88	-0.104087	311.671	50
12:21:20.043	21.89	-0.098911	311.672	50
12:21:20.053	21.9	-0.0818647	311.673	50
12:21:20.063	21.91	-0.0680669	311.673	50
12:21:20.073	21.92	-0.0810875	311.674	50
12:21:20.083	21.93	-0.0798816	311.675	50
12:21:20.093	21.94	-0.0773064	311.675	50
12:21:20.103	21.95	-0.0719696	311.676	50
12:21:20.113	21.96	-0.0619757	311.676	50
12:21:20.123	21.97	-0.0545749	311.677	50
12:21:20.133	21.98	-0.0426451	311.678	50
12:21:20.143	21.99	-0.0254532	311.678	50
12:21:20.153	22	-0.016256	311.679	50
12:21:20.163	22.01	-0.022682	311.679	50
12:21:20.173	22.02	-0.0392894	311.68	50
12:21:20.183	22.03	-0.0587688	311.68	50
12:21:20.193	22.04	-0.0740635	311.681	50
12:21:20.203	22.05	-0.0711434	311.681	50
12:21:20.213	22.06	-0.0556013	311.682	50
12:21:20.223	22.07	-0.0499248	311.682	50
12:21:20.233	22.08	-0.0419355	311.683	50
12:21:20.243	22.09	-0.0299722	311.683	50
12:21:20.253	22.1	-0.0232517	311.684	50
12:21:20.263	22.11	-0.0181972	311.684	50
12:21:20.273	22.12	-0.00855736	311.685	50
12:21:20.283	22.13	0.00546403	311.685	50
12:21:20.293	22.14	0.0126623	311.686	50
12:21:20.303	22.15	0.00528495	311.686	50
12:21:20.313	22.16	-0.008687	311.687	50
12:21:20.323	22.17	-0.0239205	311.687	50
12:21:20.333	22.18	-0.0454943	311.687	50
12:21:20.343	22.19	-0.0638865	311.688	50
12:21:20.353	22.2	-0.0648905	311.688	50
12:21:20.363	22.21	-0.0430657	311.689	50
12:21:20.373	22.22	-0.0106143	311.689	50
12:21:20.383	22.23	0.00197589	311.69	50
12:21:20.393	22.24	-0.00586497	311.69	50
12:21:20.403	22.25	-0.0218166	311.691	50
12:21:20.413	22.26	-0.0381997	311.691	50
12:21:20.423	22.27	-0.0435757	311.692	50
12:21:20.433	22.28	-0.0361491	311.692	50
12:21:20.443	22.29	-0.0212794	311.693	50
12:21:20.453	22.3	0.000804194	311.693	50
12:21:20.463	22.31	0.0240385	311.694	50
12:21:20.473	22.32	0.0441375	311.694	50
12:21:20.483	22.33	0.0654332	311.695	50
12:21:20.493	22.34	0.083371	311.695	50
12:21:20.503	22.35	0.0932052	311.695	50
12:21:20.513	22.36	0.0981318	311.696	50
12:21:20.523	22.37	0.0886754	311.696	50
12:21:20.533	22.38	0.0665584	311.697	50
12:21:20.543	22.39	0.0469414	311.697	50
12:21:20.553	22.4	0.0233631	311.698	50
12:21:20.563	22.41	0.0104825	311.698	50
12:21:20.573	22.42	0.00688037	311.699	50
12:21:20.583	22.43	0.0140967	311.699	50
12:21:20.593	22.44	0.0314513	311.7	50
12:21:20.603	22.45	0.0510659	311.7	50
12:21:20.613	22.46	0.0614704	311.701	50
12:21:20.623	22.47	0.0592079	311.701	50
12:21:20.633	22.48	0.048372	311.702	50
12:21:20.643	22.49	0.0382847	311.703	50
12:21:20.653	22.5	0.0261457	311.703	50
12:21:20.663	22.51	0.0171152	311.704	50
12:21:20.673	22.52	0.00999527	311.704	50
12:21:20.683	22.53	0.00101454	311.705	50
12:21:20.693	22.54	-0.0151472	311.705	50
12:21:20.703	22.55	-0.0331137	311.706	50
12:21:20.713	22.56	-0.049621	311.707	50
12:21:20.723	22.57	-0.0590895	311.707	50
12:21:20.733	22.58	-0.0610601	311.708	50
12:21:20.743	22.59	-0.0494166	311.709	50
12:21:20.753	22.6	-0.0232398	311.709	50
12:21:20.763	22.61	-0.00101608	311.71	50
12:21:20.773	22.62	0.0117018	311.711	50
12:21:20.783	22.63	0.00851342	311.711	50
12:21:20.793	22.64	-0.0131823	311.712	50
12:21:20.803	22.65	-0.04125	311.713	50
12:21:20.813	22.66	-0.0548241	311.714	50
12:21:20.823	22.67	-0.0557977	311.715	50
12:21:20.833	22.68	-0.0526263	311.715	50
12:21:20.843	22.69	-0.0491974	311.716	50
12:21:20.853	22.7	-0.0303694	311.717	50
12:21:20.863	22.71	-0.0152191	311.718	50
12:21:20.873	22.72	0.0153746	311.719	50
12:21:20.883	22.73	0.0392005	311.72	50
12:21:20.893	22.74	0.0544564	311.721	50
12:21:20.903	22.75	0.0577914	311.722	50
12:21:20.913	22.76	0.042452	311.723	50
12:21:20.923	22.77	0.0182685	311.724	50
12:21:20.933	22.78	-0.0022284	311.725	50
12:21:20.943	22.79	-0.0203981	311.726	50
12:21:20.953	22.8	-0.0346751	311.727	50
12:21:20.963	22.81	-0.0455844	311.728	50
12:21:20.973	22.82	-0.0573856	311.729	50
12:21:20.983	22.83	-0.0720275	311.73	50
12:21:20.993	22.84	-0.0852374	311.731	50
12:21:21.003	22.85	-0.0903543	311.732	50
12:21:21.013	22.86	-0.0850063	311.733	50
12:21:21.023	22.87	-0.0809208	311.734	50
12:21:21.033	22.88	-0.0782609	311.735	50
12:21:21.043	22.89	-0.0750595	311.737	50
12:21:21.053	22.9	-0.0702221	311.738	50
12:21:21.063	22.91	-0.0528925	311.739	50
12:21:21.073	22.92	-0.00035222	311.74	50
12:21:21.083	22.93	0.072587	311.741	50
12:21:21.093	22.94	0.125877	311.742	50
12:21:21.103	22.95	0.147878	311.744	153.846
12:21:21.113	22.96	0.147764	311.745	153.846
12:21:21.123	22.97	0.126305	311.746	153.846
12:21:21.133	22.98	0.0830438	311.747	153.846
12:21:21.143	22.99	0.0190956	311.749	153.846
12:21:21.153	23	-0.0505626	311.75	153.846
12:21:21.163	23.01	-0.102105	311.751	153.846
12:21:21.173	23.02	-0.127455	311.752	153.846
12:21:21.183	23.03	-0.134182	311.753	153.846
12:21:21.193	23.04	-0.133752	311.755	153.846
12:21:21.203	23.05	-0.120076	311.756	153.846
12:21:21.213	23.06	-0.0997052	311.757	153.846
12:21:21.223	23.07	-0.0680923	311.758	153.846
12:21:21.233	23.08	-0.0194926	311.76	153.846
12:21:21.243	23.09	0.0306958	311.761	153.846
12:21:21.253	23.1	0.0686243	311.762	153.846
12:21:21.263	23.11	0.0847429	311.763	153.846
12:21:21.273	23.12	0.0827195	311.764	153.846
12:21:21.283	23.13	0.0729955	311.766	153.846
12:21:21.293	23.14	0.0643564	311.767	153.846
12:21:21.303	23.15	0.0596134	311.768	153.846
12:21:21.313	23.16	0.0572624	311.769	153.846
12:21:21.323	23.17	0.0550198	311.77	153.846
12:21:21.333	23.18	0.0484816	311.772	153.846
12:21:21.343	23.19	0.0340462	311.773	153.846
12:21:21.353	23.2	0.00696325	311.774	153.846
12:21:21.363	23.21	-0.0318651	311.775	153.846
12:21:21.373	23.22	-0.0595712	311.776	153.846
12:21:21.383	23.23	-0.0733941	311.777	153.846
12:21:21.393	23.24	-0.0800784	311.778	153.846
12:21:21.403	23.25	-0.0763082	311.779	153.846
12:21:21.413	23.26	-0.0641427	311.78	153.846
12:21:21.423	23.27	-0.0478695	311.781	153.846
12:21:21.433	23.28	-0.0228088	311.782	153.846
12:21:21.443	23.29	0.0180433	311.783	153.846
12:21:21.453	23.3	0.0739976	311.784	153.846
12:21:21.463	23.31	0.126239	311.785	153.846
12:21:21.473	23.32	0.159994	311.786	153.846
12:21:21.483	23.33	0.172084	311.786	153.846
12:21:21.493	23.34	0.173029	311.787	64.5161
12:21:21.503	23.35	0.169776	311.788	64.5161
12:21:21.513	23.36	0.16078	311.789	64.5161
12:21:21.523	23.37	0.143827	311.79	64.5161
12:21:21.533	23.38	0.120792	311.79	64.5161
12:21:21.543	23.39	0.0876604	311.791	64.5161
12:21:21.553	23.4	0.0454422	311.792	64.5161
12:21:21.563	23.41	-0.00399981	311.792	64.5161
12:21:21.573	23.42	-0.0508113	311.793	64.5161
12:21:21.583	23.43	-0.0803537	311.793	64.5161
12:21:21.593	23.44	-0.0881111	311.794	64.5161
12:21:21.603	23.45	-0.0658398	311.794	64.5161
12:21:21.613	23.46	-0.0194599	311.795	64.5161
12:21:21.623	23.47	0.0300021	311.795	64.5161
12:21:21.633	23.48	0.0612036	311.796	64.5161
12:21:21.643	23.49	0.0615734	311.796	64.5161
12:21:21.653	23.5	0.0411102	311.797	64.5161
12:21:21.663	23.51	0.0154904	311.797	64.5161
12:21:21.673	23.52	-0.00618797	311.797	64.5161
12:21:21.683	23.53	-0.0184975	311.798	64.5161
12:21:21.693	23.54	-0.0170218	311.798	64.5161
12:21:21.703	23.55	-0.000381019	311.798	64.5161
12:21:21.713	23.56	0.0212569	311.799	64.5161
12:21:21.723	23.57	0.0290157	311.799	64.5161
12:21:21.733	23.58	0.0166549	311.799	64.5161
12:21:21.743	23.59	-0.00982594	311.799	64.5161
12:21:21.753	23.6	-0.0376077	311.8	64.5161
12:21:21.763	23.61	-0.0630243	311.8	64.5161
12:21:21.773	23.62	-0.0725912	311.8	64.5161
12:21:21.783	23.63	-0.0582928	311.8	64.5161
12:21:21.793	23.64	-0.0307367	311.801	64.5161
12:21:21.803	23.65	0.00234584	311.801	64.5161
12:21:21.813	23.66	0.0316503	311.801	64.5161
12:21:21.823	23.67	0.04752	311.801	64.5161
12:21:21.833	23.68	0.0496182	311.801	64.5161
12:21:21.843	23.69	0.0467478	311.802	64.5161
12:21:21.853	23.7	0.0416618	311.802	64.5161
12:21:21.863	23.71	0.0322867	311.802	64.5161
12:21:21.873	23.72	0.0210552	311.802	64.5161
12:21:21.883	23.73	0.00727489	311.802	64.5161
12:21:21.893	23.74	-0.009853	311.802	64.5161
12:21:21.903	23.75	-0.0306184	311.803	64.5161
12:21:21.913	23.76	-0.0468233	311.803	64.5161
12:21:21.923	23.77	-0.0508662	311.803	64.5161
12:21:21.933	23.78	-0.0460017	311.803	64.5161
12:21:21.943	23.79	-0.0394	311.803	64.5161
12:21:21.953	23.8	-0.025358	311.803	64.5161
12:21:21.963	23.81	-0.00855361	311.804	64.5161
12:21:21.973	23.82	-0.00259245	311.804	64.5161
12:21:21.983	23.83	-0.0122327	311.804	64.5161
12:21:21.993	23.84	-0.0268122	311.804	64.5161
12:21:22.003	23.85	-0.0433504	311.804	64.5161
12:21:22.013	23.86	-0.0589445	311.804	64.5161
12:21:22.023	23.87	-0.0576836	311.805	64.5161
12:21:22.033	23.88	-0.0520197	311.805	64.5161
12:21:22.043	23.89	-0.0431205	311.805	64.5161
12:21:22.053	23.9	-0.0345654	311.805	64.5161
12:21:22.063	23.91	-0.0255219	311.806	64.5161
12:21:22.073	23.92	-0.0184846	311.806	64.5161
12:21:22.083	23.93	-0.0133255	311.806	64.5161
12:21:22.093	23.94	-0.0158324	311.806	64.5161
12:21:22.103	23.95	-0.0304038	311.807	64.5161
12:21:22.113	23.96	-0.0496865	311.807	64.5161
12:21:22.123	23.97	-0.0603945	311.807	64.5161
12:21:22.133	23.98	-0.0650851	311.808	64.5161
12:21:22.143	23.99	-0.0713349	311.808	64.5161
12:21:22.153	24	-0.0724667	311.808	64.5161
12:21:22.163	24.01	-0.0595543	311.809	64.5161
12:21:22.173	24.02	-0.0434794	311.809	64.5161
12:21:22.183	24.03	-0.030747	311.81	64.5161
12:21:22.193	24.04	-0.0227141	311.81	64.5161
12:21:22.203	24.05	-0.0181372	311.811	64.5161
12:21:22.213	24.06	-0.0149952	311.811	64.5161
12:21:22.223	24.07	-0.0139359	311.812	64.5161
12:21:22.233	24.08	-0.015785	311.812	64.5161
12:21:22.243	24.09	-0.0159606	311.813	64.5161
12:21:22.253	24.1	-0.0152592	311.814	64.5161
12:21:22.263	24.11	-0.0153698	311.814	64.5161
12:21:22.273	24.12	-0.0209294	311.815	64.5161
12:21:22.283	24.13	-0.0270144	311.816	64.5161
12:21:22.293	24.14	-0.040381	311.817	64.5161
12:21:22.303	24.15	-0.0453367	311.817	64.5161
12:21:22.313	24.16	-0.0193784	311.818	64.5161
12:21:22.323	24.17	-0.0296136	311.819	64.5161
12:21:22.333	24.18	-0.0365916	311.82	64.5161
12:21:22.343	24.19	-0.0382748	311.821	64.5161
12:21:22.353	24.2	-0.0282159	311.822	64.5161
12:21:22.363	24.21	-0.000752951	311.823	64.5161
12:21:22.373	24.22	0.0362379	311.824	64.5161
12:21:22.383	24.23	0.0832752	311.825	64.5161
12:21:22.393	24.24	0.13312	311.826	64.5161
12:21:22.403	24.25	0.169581	311.828	64.5161
12:21:22.413	24.26	0.186937	311.829	64.5161
12:21:22.423	24.27	0.189688	311.83	15.1133
12:21:22.433	24.28	0.168576	311.831	15.1133
12:21:22.443	24.29	0.133263	311.833	15.1133
12:21:22.453	24.3	0.0899605	311.834	15.1133
12:21:22.463	24.31	0.0403965	311.835	15.1133
12:21:22.473	24.32	-0.0065193	311.837	15.1133
12:21:22.483	24.33	-0.0392436	311.838	15.1133
12:21:22.493	24.34	-0.057654	311.84	15.1133
12:21:22.503	24.35	-0.0625397	311.841	15.1133
12:21:22.513	24.36	-0.0545482	311.842	15.1133
12:21:22.523	24.37	-0.0375763	311.844	15.1133
12:21:22.533	24.38	-0.014143	311.846	15.1133
12:21:22.543	24.39	0.00156382	311.847	15.1133
12:21:22.553	24.4	0.012683	311.849	15.1133
12:21:22.563	24.41	0.0120424	311.85	15.1133
12:21:22.573	24.42	-0.00261378	311.852	15.1133
12:21:22.583	24.43	-0.0285239	311.853	15.1133
12:21:22.593	24.44	-0.0500186	311.855	15.1133
12:21:22.603	24.45	-0.0546289	311.857	15.1133
12:21:22.613	24.46	-0.050853	311.858	15.1133
12:21:22.623	24.47	-0.0419788	311.86	15.1133
12:21:22.633	24.48	-0.0191136	311.862	15.1133
12:21:22.643	24.49	-0.0016113	311.863	15.1133
12:21:22.653	24.5	0.00457183	311.865	15.1133
12:21:22.663	24.51	0.000505538	311.867	15.1133
12:21:22.673	24.52	-0.0101211	311.869	15.1133
12:21:22.683	24.53	-0.0173029	311.87	15.1133
12:21:22.693	24.54	-0.0111868	311.872	15.1133
12:21:22.703	24.55	0.00508527	311.874	15.1133
12:21:22.713	24.56	0.023001	311.875	15.1133
12:21:22.723	24.57	0.0288851	311.877	15.1133
12:21:22.733	24.58	0.0186871	311.879	15.1133
12:21:22.743	24.59	0.00565591	311.881	15.1133
12:21:22.753	24.6	-0.00560858	311.882	15.1133
12:21:22.763	24.61	-0.0126525	311.884	15.1133
12:21:22.773	24.62	-0.0235388	311.886	15.1133
12:21:22.783	24.63	-0.0298859	311.887	15.1133
12:21:22.793	24.64	-0.0276409	311.889	15.1133
12:21:22.803	24.65	-0.0285511	311.891	15.1133
12:21:22.813	24.66	-0.035093	311.892	15.1133
12:21:22.823	24.67	-0.0406241	311.894	15.1133
12:21:22.833	24.68	-0.0412878	311.896	15.1133
12:21:22.843	24.69	-0.0401403	311.897	15.1133
12:21:22.853	24.7	-0.0375308	311.899	15.1133
12:21:22.863	24.71	-0.0325851	311.901	15.1133
12:21:22.873	24.72	-0.0267646	311.902	15.1133
12:21:22.883	24.73	-0.0259955	311.904	15.1133
12:21:22.893	24.74	-0.026721	311.905	15.1133
12:21:22.903	24.75	-0.0225189	311.907	15.1133
12:21:22.913	24.76	-0.0151365	311.908	15.1133
12:21:22.923	24.77	0.00130295	311.91	15.1133
12:21:22.933	24.78	0.0243491	311.911	15.1133
12:21:22.943	24.79	0.0388402	311.913	15.1133
12:21:22.953	24.8	0.0365397	311.914	15.1133
12:21:22.963	24.81	0.0261638	311.916	15.1133
12:21:22.973	24.82	0.0122639	311.917	15.1133
12:21:22.983	24.83	-0.0036213	311.918	15.1133
12:21:22.993	24.84	-0.0200716	311.92	15.1133
12:21:23.003	24.85	-0.0332631	311.921	15.1133
12:21:23.013	24.86	-0.05002	311.922	15.1133
12:21:23.023	24.87	-0.07042	311.924	15.1133
12:21:23.033	24.88	-0.0779381	311.925	15.1133
12:21:23.043	24.89	-0.0655591	311.926	15.1133
12:21:23.053	24.9	-0.0434918	311.928	15.1133
12:21:23.063	24.91	-0.0257059	311.929	15.1133
12:21:23.073	24.92	-0.0106873	311.93	15.1133
12:21:23.083	24.93	0.00989391	311.931	15.1133
12:21:23.093	24.94	0.0451837	311.932	15.1133
12:21:23.103	24.95	0.077681	311.933	15.1133
12:21:23.113	24.96	0.0943267	311.934	15.1133
12:21:23.123	24.97	0.105864	311.935	15.1133
12:21:23.133	24.98	0.111847	311.937	15.1133
12:21:23.143	24.99	0.112122	311.938	15.1133
12:21:23.153	25	0.0979456	311.939	15.1133
12:21:23.163	25.01	0.0604411	311.939	15.1133
12:21:23.173	25.02	0.0381739	311.94	15.1133
12:21:23.183	25.03	0.0211191	311.941	15.1133
12:21:23.193	25.04	-0.0158977	311.942	15.1133
12:21:23.203	25.05	-0.0578557	311.943	15.1133
12:21:23.213	25.06	-0.0869955	311.944	15.1133
12:21:23.223	25.07	-0.103415	311.945	15.1133
12:21:23.233	25.08	-0.112359	311.946	15.1133
12:21:23.243	25.09	-0.106437	311.946	15.1133
12:21:23.253	25.1	-0.0893291	311.947	15.1133
12:21:23.263	25.11	-0.0740181	311.948	15.1133
12:21:23.273	25.12	-0.0666962	311.949	15.1133
12:21:23.283	25.13	-0.0731541	311.949	15.1133
12:21:23.293	25.14	-0.0661559	311.95	15.1133
12:21:23.303	25.15	-0.0463759	311.951	15.1133
12:21:23.313	25.16	-0.0248133	311.951	15.1133
12:21:23.323	25.17	0.00889184	311.952	15.1133
12:21:23.333	25.18	0.035283	311.953	15.1133
12:21:23.343	25.19	0.0330174	311.953	15.1133
12:21:23.353	25.2	0.0240543	311.954	15.1133
12:21:23.363	25.21	0.0226739	311.954	15.1133
12:21:23.373	25.22	0.0309943	311.955	15.1133
12:21:23.383	25.23	0.0474798	311.956	15.1133
12:21:23.393	25.24	0.0655849	311.956	15.1133
12:21:23.403	25.25	0.0821269	311.957	15.1133
12:21:23.413	25.26	0.0901697	311.957	15.1133
12:21:23.423	25.27	0.0862436	311.958	15.1133
12:21:23.433	25.28	0.0686252	311.958	15.1133
12:21:23.443	25.29	0.0538546	311.959	15.1133
12:21:23.453	25.3	0.0461249	311.959	15.1133
12:21:23.463	25.31	0.032853	311.96	15.1133
12:21:23.473	25.32	0.0282426	311.96	15.1133
12:21:23.483	25.33	0.0319863	311.961	15.1133
12:21:23.493	25.34	0.0346435	311.961	15.1133
12:21:23.503	25.35	0.0234006	311.962	15.1133
12:21:23.513	25.36	0.00510271	311.963	15.1133
12:21:23.523	25.37	-0.00899748	311.963	15.1133
12:21:23.533	25.38	-0.0141484	311.964	15.1133
12:21:23.543	25.39	-0.0104801	311.964	15.1133
12:21:23.553	25.4	-0.00747401	311.965	15.1133
12:21:23.563	25.41	3.5485e-05	311.966	15.1133
12:21:23.573	25.42	0.0122013	311.966	15.1133
12:21:23.583	25.43	0.0209368	311.967	15.1133
12:21:23.593	25.44	0.0258231	311.968	15.1133
12:21:23.603	25.45	0.0260224	311.968	15.1133
12:21:23.613	25.46	0.0176344	311.969	15.1133
12:21:23.623	25.47	0.0102741	311.97	15.1133
12:21:23.633	25.48	0.014955	311.97	15.1133
12:21:23.643	25.49	0.0228768	311.971	15.1133
12:21:23.653	25.5	0.0215225	311.972	15.1133
12:21:23.663	25.51	0.00905335	311.973	15.1133
12:21:23.673	25.52	-0.00239622	311.974	15.1133
12:21:23.683	25.53	-0.00608337	311.974	15.1133
12:21:23.693	25.54	-0.0122169	311.975	15.1133
12:21:23.703	25.55	-0.0198602	311.976	15.1133
12:21:23.713	25.56	-0.0220508	311.977	15.1133
12:21:23.723	25.57	-0.0189947	311.978	15.1133
12:21:23.733	25.58	-0.0120332	311.979	15.1133
12:21:23.743	25.59	-0.00633361	311.98	15.1133
12:21:23.753	25.6	-0.00438466	311.98	15.1133
12:21:23.763	25.61	-0.00127124	311.981	15.1133
12:21:23.773	25.62	0.00208359	311.982	15.1133
12:21:23.783	25.63	0.00260469	311.983	15.1133
12:21:23.793	25.64	0.00524205	311.984	15.1133
12:21:23.803	25.65	0.0068627	311.985	15.1133
12:21:23.813	25.66	0.0032361	311.986	15.1133
12:21:23.823	25.67	-0.00497618	311.987	15.1133
12:21:23.833	25.68	-0.0179405	311.988	15.1133
12:21:23.843	25.69	-0.0342092	311.989	15.1133
12:21:23.853	25.7	-0.0474153	311.99	15.1133
12:21:23.863	25.71	-0.0496445	311.991	15.1133
12:21:23.873	25.72	-0.0463029	311.992	15.1133
12:21:23.883	25.73	-0.0346416	311.993	15.1133
12:21:23.893	25.74	-0.0162144	311.994	15.1133
12:21:23.903	25.75	0.00139061	311.995	15.1133
12:21:23.913	25.76	0.0072593	311.996	15.1133
12:21:23.923	25.77	0.00345495	311.997	15.1133
12:21:23.933	25.78	-0.00198302	311.998	15.1133
12:21:23.943	25.79	-0.00469259	311.999	15.1133
12:21:23.953	25.8	-0.000739367	312	15.1133
12:21:23.963	25.81	0.0126899	312.001	15.1133
12:21:23.973	25.82	0.0305953	312.002	15.1133
12:21:23.983	25.83	0.0407436	312.003	15.1133
12:21:23.993	25.84	0.0424592	312.004	15.1133
12:21:24.003	25.85	0.0294961	312.005	15.1133
12:21:24.013	25.86	0.0067548	312.006	15.1133
12:21:24.023	25.87	-0.0213785	312.007	15.1133
12:21:24.033	25.88	-0.0363939	312.008	15.1133
12:21:24.043	25.89	-0.0300529	312.009	15.1133
12:21:24.053	25.9	-0.00969164	312.01	15.1133
12:21:24.063	25.91	0.0108221	312.011	15.1133
12:21:24.073	25.92	0.0248085	312.012	15.1133
12:21:24.083	25.93	0.0241041	312.013	15.1133
12:21:24.093	25.94	0.00657854	312.014	15.1133
12:21:24.103	25.95	-0.0143673	312.015	15.1133
12:21:24.113	25.96	-0.0296406	312.016	15.1133
12:21:24.123	25.97	-0.0449619	312.017	15.1133
12:21:24.133	25.98	-0.0521802	312.018	15.1133
12:21:24.143	25.99	-0.047766	312.019	15.1133
12:21:24.153	26	-0.0365638	312.02	15.1133
12:21:24.163	26.01	-0.0270892	312.021	15.1133
12:21:24.173	26.02	-0.0229875	312.022	15.1133
12:21:24.183	26.03	-0.0269934	312.023	15.1133
12:21:24.193	26.04	-0.0309065	312.024	15.1133
12:21:24.203	26.05	-0.0254726	312.025	15.1133
12:21:24.213	26.06	-0.0151594	312.026	15.1133
12:21:24.223	26.07	-0.00891474	312.027	15.1133
12:21:24.233	26.08	-0.0153683	312.028	15.1133
12:21:24.243	26.09	-0.0296095	312.029	15.1133
12:21:24.253	26.1	-0.0468771	312.03	15.1133
12:21:24.263	26.11	-0.0475537	312.031	15.1133
12:21:24.273	26.12	-0.047113	312.032	15.1133
12:21:24.283	26.13	-0.047182	312.033	15.1133
12:21:24.293	26.14	-0.0479182	312.034	15.1133
12:21:24.303	26.15	-0.0453182	312.035	15.1133
12:21:24.313	26.16	-0.0308618	312.036	15.1133
12:21:24.323	26.17	0.000216756	312.036	15.1133
12:21:24.333	26.18	0.037829	312.038	15.1133
12:21:24.343	26.19	0.0521279	312.038	15.1133
12:21:24.353	26.2	0.0491514	312.039	15.1133
12:21:24.363	26.21	0.0398943	312.04	15.1133
12:21:24.373	26.22	0.0367463	312.041	15.1133
12:21:24.383	26.23	0.0399583	312.042	15.1133
12:21:24.393	26.24	0.0500803	312.043	15.1133
12:21:24.403	26.25	0.0657062	312.044	15.1133
12:21:24.413	26.26	0.0837219	312.045	15.1133
12:21:24.423	26.27	0.102613	312.046	15.1133
12:21:24.433	26.28	0.117048	312.047	15.1133
12:21:24.443	26.29	0.121354	312.048	15.1133
12:21:24.453	26.3	0.111685	312.049	15.1133
12:21:24.463	26.31	0.0871118	312.05	15.1133
12:21:24.473	26.32	0.054595	312.051	15.1133
12:21:24.483	26.33	0.0187333	312.052	15.1133
12:21:24.493	26.34	-0.0154196	312.053	15.1133
12:21:24.503	26.35	-0.0301709	312.054	15.1133
12:21:24.513	26.36	-0.0191645	312.055	15.1133
12:21:24.523	26.37	0.00101166	312.056	15.1133
12:21:24.533	26.38	0.0158151	312.057	15.1133
12:21:24.543	26.39	0.0215199	312.057	15.1133
12:21:24.553	26.4	0.02267	312.058	15.1133
12:21:24.563	26.41	0.0223932	312.059	15.1133
12:21:24.573	26.42	0.0192642	312.06	15.1133
12:21:24.583	26.43	0.0135823	312.061	15.1133
12:21:24.593	26.44	-0.00036291	312.062	15.1133
12:21:24.603	26.45	-0.0224052	312.063	15.1133
12:21:24.613	26.46	-0.0421815	312.064	15.1133
12:21:24.623	26.47	-0.0540503	312.064	15.1133
12:21:24.633	26.48	-0.0566062	312.065	15.1133
12:21:24.643	26.49	-0.0485054	312.066	15.1133
12:21:24.653	26.5	-0.0348399	312.067	15.1133
12:21:24.663	26.51	-0.0162836	312.068	15.1133
12:21:24.673	26.52	0.000482297	312.068	15.1133
12:21:24.683	26.53	0.0107833	312.069	15.1133
12:21:24.693	26.54	0.0142525	312.07	15.1133
12:21:24.703	26.55	0.0100692	312.071	15.1133
12:21:24.713	26.56	0.00174483	312.072	15.1133
12:21:24.723	26.57	-0.0026461	312.072	15.1133
12:21:24.733	26.58	-0.00298438	312.073	15.1133
12:21:24.743	26.59	-0.0019656	312.074	15.1133
12:21:24.753	26.6	0.000898594	312.074	15.1133
12:21:24.763	26.61	-0.00441579	312.075	15.1133
12:21:24.773	26.62	-0.0137301	312.076	15.1133
12:21:24.783	26.63	-0.0158872	312.076	15.1133
12:21:24.793	26.64	-0.0216628	312.077	15.1133
12:21:24.803	26.65	-0.034358	312.078	15.1133
12:21:24.813	26.66	-0.0440351	312.078	15.1133
12:21:24.823	26.67	-0.0508409	312.079	15.1133
12:21:24.833	26.68	-0.0537483	312.08	15.1133
12:21:24.843	26.69	-0.0443529	312.08	15.1133
12:21:24.853	26.7	-0.0272041	312.081	15.1133
12:21:24.863	26.71	-0.022307	312.081	15.1133
12:21:24.873	26.72	-0.0217522	312.082	15.1133
12:21:24.883	26.73	-0.0196848	312.083	15.1133
12:21:24.893	26.74	-0.0151187	312.083	15.1133
12:21:24.903	26.75	-0.00782106	312.084	15.1133
12:21:24.913	26.76	-0.00585629	312.084	15.1133
12:21:24.923	26.77	-0.00392819	312.085	15.1133
12:21:24.933	26.78	-0.000801963	312.085	15.1133
12:21:24.943	26.79	-0.00822355	312.086	15.1133
12:21:24.953	26.8	-0.0142344	312.086	15.1133
12:21:24.963	26.81	-0.00297159	312.087	15.1133
12:21:24.973	26.82	0.0183312	312.087	15.1133
12:21:24.983	26.83	0.0293623	312.088	15.1133
12:21:24.993	26.84	0.0229626	312.088	15.1133
12:21:25.003	26.85	0.00725728	312.088	15.1133
12:21:25.013	26.86	-0.0111844	312.089	15.1133
12:21:25.023	26.87	-0.0229572	312.089	15.1133
12:21:25.033	26.88	-0.0290664	312.09	15.1133
12:21:25.043	26.89	-0.0402526	312.09	15.1133
12:21:25.053	26.9	-0.0461478	312.09	15.1133
12:21:25.063	26.91	-0.0415079	312.091	15.1133
12:21:25.073	26.92	-0.0317319	312.091	15.1133
12:21:25.083	26.93	-0.0240688	312.091	15.1133
12:21:25.093	26.94	-0.0201017	312.092	15.1133
