TimeOfDay	Time	Pulse	Skin Conductance	Heart Rate
12:43:01.878	0	-0.0991778	366.298	666.667
12:43:01.888	0.01	-0.211727	366.298	666.667
12:43:01.898	0.02	-0.280986	366.298	666.667
12:43:01.908	0.03	-0.274713	366.295	666.667
12:43:01.918	0.04	-0.275151	366.29	666.667
12:43:01.928	0.05	-0.240258	366.279	666.667
12:43:01.938	0.06	-0.125972	366.262	666.667
12:43:01.948	0.07	0.00878506	366.236	666.667
12:43:01.958	0.08	0.0109703	366.2	666.667
12:43:01.968	0.09	0.00232802	366.153	666.667
12:43:01.978	0.1	-0.003442	366.094	666.667
12:43:01.988	0.11	-0.0400913	366.021	666.667
12:43:01.998	0.12	0.0342384	365.933	666.667
12:43:02.008	0.13	0.0512191	365.83	666.667
12:43:02.018	0.14	-0.0197716	365.711	666.667
12:43:02.028	0.15	-0.0841695	365.575	666.667
12:43:02.038	0.16	-0.121328	365.421	666.667
12:43:02.048	0.17	-0.139823	365.249	666.667
12:43:02.058	0.18	-0.169064	365.058	666.667
12:43:02.068	0.19	-0.170864	364.848	666.667
12:43:02.078	0.2	-0.160784	364.619	666.667
12:43:02.088	0.21	-0.140798	364.371	666.667
12:43:02.098	0.22	-0.163394	364.103	666.667
12:43:02.108	0.23	-0.16918	363.816	666.667
12:43:02.118	0.24	-0.132235	363.509	666.667
12:43:02.128	0.25	-0.112307	363.182	666.667
12:43:02.138	0.26	-0.148878	362.836	666.667
12:43:02.148	0.27	-0.18854	362.471	666.667
12:43:02.158	0.28	-0.117144	362.087	666.667
12:43:02.168	0.29	-0.018496	361.684	666.667
12:43:02.178	0.3	0.110586	361.262	666.667
12:43:02.188	0.31	0.177823	360.823	666.667
12:43:02.198	0.32	0.153601	360.365	666.667
12:43:02.208	0.33	0.158463	359.891	666.667
12:43:02.218	0.34	0.0414061	359.4	666.667
12:43:02.228	0.35	-0.124209	358.893	666.667
12:43:02.238	0.36	-0.17358	358.37	666.667
12:43:02.248	0.37	-0.116955	357.831	666.667
12:43:02.258	0.38	-0.00506596	357.279	666.667
12:43:02.268	0.39	0.130834	356.712	666.667
12:43:02.278	0.4	0.257842	356.132	666.667
12:43:02.288	0.41	0.302048	355.539	666.667
12:43:02.298	0.42	0.236285	354.934	666.667
12:43:02.308	0.43	0.164081	354.318	666.667
12:43:02.318	0.44	0.050476	353.691	666.667
12:43:02.328	0.45	-0.0175441	353.054	666.667
12:43:02.338	0.46	0.00514183	352.407	666.667
12:43:02.348	0.47	0.0245945	351.752	666.667
12:43:02.358	0.48	0.0893988	351.089	666.667
12:43:02.368	0.49	0.230786	350.418	666.667
12:43:02.378	0.5	0.272428	349.741	101.695
12:43:02.388	0.51	0.095797	349.058	101.695
12:43:02.398	0.52	-0.0128233	348.369	101.695
12:43:02.408	0.53	-0.0715113	347.676	101.695
12:43:02.418	0.54	-0.125595	346.978	101.695
12:43:02.428	0.55	-0.116906	346.278	101.695
12:43:02.438	0.56	-0.129373	345.575	101.695
12:43:02.448	0.57	-0.0983121	344.869	101.695
12:43:02.458	0.58	-0.0318152	344.162	101.695
12:43:02.468	0.59	0.0369661	343.455	101.695
12:43:02.478	0.6	0.0125595	342.747	101.695
12:43:02.488	0.61	-0.152495	342.04	101.695
12:43:02.498	0.62	-0.299408	341.333	101.695
12:43:02.508	0.63	-0.467337	340.628	101.695
12:43:02.518	0.64	-0.537971	339.925	101.695
12:43:02.528	0.65	-0.442077	339.225	101.695
12:43:02.538	0.66	-0.211009	338.528	101.695
12:43:02.548	0.67	0.0111254	337.834	101.695
12:43:02.558	0.68	0.0295826	337.145	101.695
12:43:02.568	0.69	-0.156223	336.46	101.695
12:43:02.578	0.7	-0.352567	335.78	101.695
12:43:02.588	0.71	-0.45002	335.105	101.695
12:43:02.598	0.72	-0.439474	334.436	101.695
12:43:02.608	0.73	-0.372925	333.774	101.695
12:43:02.618	0.74	-0.224466	333.118	101.695
12:43:02.628	0.75	-0.0674782	332.468	101.695
12:43:02.638	0.76	-0.13655	331.827	101.695
12:43:02.648	0.77	-0.193717	331.193	101.695
12:43:02.658	0.78	-0.232782	330.566	101.695
12:43:02.668	0.79	-0.345863	329.948	101.695
12:43:02.678	0.8	-0.52394	329.339	101.695
12:43:02.688	0.81	-0.596693	328.738	101.695
12:43:02.698	0.82	-0.566054	328.146	101.695
12:43:02.708	0.83	-0.421021	327.563	101.695
12:43:02.718	0.84	-0.25584	326.99	101.695
12:43:02.728	0.85	-0.173392	326.426	101.695
12:43:02.738	0.86	-0.133304	325.872	101.695
12:43:02.748	0.87	-0.164828	325.328	101.695
12:43:02.758	0.88	-0.131729	324.794	101.695
12:43:02.768	0.89	-0.108145	324.27	101.695
12:43:02.778	0.9	-0.209227	323.756	101.695
12:43:02.788	0.91	-0.308139	323.253	101.695
12:43:02.798	0.92	-0.311824	322.76	101.695
12:43:02.808	0.93	-0.284306	322.277	101.695
12:43:02.818	0.94	-0.194416	321.806	101.695
12:43:02.828	0.95	-0.024954	321.344	101.695
12:43:02.838	0.96	0.0922767	320.894	101.695
12:43:02.848	0.97	-0.0587479	320.454	101.695
12:43:02.858	0.98	-0.250265	320.024	101.695
12:43:02.868	0.99	-0.257555	319.606	101.695
12:43:02.878	1	-0.242735	319.197	101.695
12:43:02.888	1.01	-0.498523	318.8	101.695
12:43:02.898	1.02	-0.631777	318.413	101.695
12:43:02.908	1.03	-0.499439	318.036	101.695
12:43:02.918	1.04	-0.292301	317.67	101.695
12:43:02.928	1.05	-0.0755237	317.314	101.695
12:43:02.938	1.06	0.144493	316.969	101.695
12:43:02.948	1.07	0.223661	316.633	101.695
12:43:02.958	1.08	0.279262	316.308	101.695
12:43:02.968	1.09	0.324753	315.993	750
12:43:02.978	1.1	0.207796	315.687	750
12:43:02.988	1.11	0.0826171	315.392	750
12:43:02.998	1.12	-0.000558692	315.106	750
12:43:03.008	1.13	0.00300002	314.829	750
12:43:03.018	1.14	0.0555887	314.562	750
12:43:03.028	1.15	0.15764	314.304	750
12:43:03.038	1.16	0.268793	314.055	750
12:43:03.048	1.17	0.305752	313.815	600
12:43:03.058	1.18	0.259229	313.584	600
12:43:03.068	1.19	0.146254	313.362	600
12:43:03.078	1.2	0.0852695	313.148	600
12:43:03.088	1.21	-0.0415107	312.942	600
12:43:03.098	1.22	-0.133623	312.745	600
12:43:03.108	1.23	-0.11428	312.555	600
12:43:03.118	1.24	-0.00123789	312.374	600
12:43:03.128	1.25	0.139984	312.2	600
12:43:03.138	1.26	0.293557	312.033	600
12:43:03.148	1.27	0.45085	311.874	750
12:43:03.158	1.28	0.41847	311.722	750
12:43:03.168	1.29	0.261493	311.577	750
12:43:03.178	1.3	0.136	311.439	750
12:43:03.188	1.31	0.11829	311.307	750
12:43:03.198	1.32	0.176339	311.182	750
12:43:03.208	1.33	0.230078	311.063	750
12:43:03.218	1.34	0.306408	310.95	750
12:43:03.228	1.35	0.367629	310.844	600
12:43:03.238	1.36	0.347963	310.742	600
12:43:03.248	1.37	0.294646	310.647	600
12:43:03.258	1.38	0.246634	310.557	600
12:43:03.268	1.39	0.178422	310.472	600
12:43:03.278	1.4	0.120102	310.392	600
12:43:03.288	1.41	0.0576416	310.317	600
12:43:03.298	1.42	0.0787507	310.247	600
12:43:03.308	1.43	0.159735	310.182	600
12:43:03.318	1.44	0.248792	310.121	600
12:43:03.328	1.45	0.332023	310.064	272.727
12:43:03.338	1.46	0.192559	310.011	272.727
12:43:03.348	1.47	0.0217127	309.963	272.727
12:43:03.358	1.48	0.0085788	309.918	272.727
12:43:03.368	1.49	-0.0179168	309.877	272.727
12:43:03.378	1.5	-0.0197382	309.839	272.727
12:43:03.388	1.51	0.014532	309.805	272.727
12:43:03.398	1.52	0.0306264	309.774	272.727
12:43:03.408	1.53	0.0369159	309.746	272.727
12:43:03.418	1.54	0.0597575	309.721	272.727
12:43:03.428	1.55	0.0595129	309.699	272.727
12:43:03.438	1.56	0.0356689	309.68	272.727
12:43:03.448	1.57	0.0609363	309.664	272.727
12:43:03.458	1.58	0.0843866	309.65	272.727
12:43:03.468	1.59	0.12452	309.638	272.727
12:43:03.478	1.6	0.116915	309.629	272.727
12:43:03.488	1.61	0.0710679	309.621	272.727
12:43:03.498	1.62	0.0578773	309.616	272.727
12:43:03.508	1.63	0.0902213	309.613	272.727
12:43:03.518	1.64	0.137363	309.612	272.727
12:43:03.528	1.65	0.244272	309.612	272.727
12:43:03.538	1.66	0.394944	309.614	272.727
12:43:03.548	1.67	0.411063	309.618	666.667
12:43:03.558	1.68	0.279724	309.623	666.667
12:43:03.568	1.69	0.146999	309.629	666.667
12:43:03.578	1.7	-0.0189353	309.637	666.667
12:43:03.588	1.71	-0.0925657	309.646	666.667
12:43:03.598	1.72	-0.0467636	309.656	666.667
12:43:03.608	1.73	0.0680911	309.668	666.667
12:43:03.618	1.74	0.209446	309.68	666.667
12:43:03.628	1.75	0.320647	309.693	666.667
12:43:03.638	1.76	0.394499	309.707	93.75
12:43:03.648	1.77	0.387188	309.722	93.75
12:43:03.658	1.78	0.267075	309.737	93.75
12:43:03.668	1.79	0.10645	309.754	93.75
12:43:03.678	1.8	-0.0218438	309.77	93.75
12:43:03.688	1.81	-0.0466297	309.788	93.75
12:43:03.698	1.82	-0.00787574	309.806	93.75
12:43:03.708	1.83	0.0437297	309.824	93.75
12:43:03.718	1.84	0.114764	309.842	93.75
12:43:03.728	1.85	0.160793	309.861	93.75
12:43:03.738	1.86	0.144267	309.881	93.75
12:43:03.748	1.87	0.129042	309.9	93.75
12:43:03.758	1.88	-0.00501617	309.92	93.75
12:43:03.768	1.89	-0.0862641	309.94	93.75
12:43:03.778	1.9	-0.0484508	309.96	93.75
12:43:03.788	1.91	0.002008	309.98	93.75
12:43:03.798	1.92	0.0432752	310	93.75
12:43:03.808	1.93	0.107479	310.02	93.75
12:43:03.818	1.94	0.179128	310.04	93.75
12:43:03.828	1.95	0.164655	310.061	93.75
12:43:03.838	1.96	0.0850984	310.081	93.75
12:43:03.848	1.97	0.0562735	310.101	93.75
12:43:03.858	1.98	0.0559781	310.12	93.75
12:43:03.868	1.99	0.0378332	310.14	93.75
12:43:03.878	2	-0.0225317	310.16	93.75
12:43:03.887	2.01	-0.0492435	310.179	93.75
12:43:03.898	2.02	-0.0428247	310.198	93.75
12:43:03.907	2.03	-0.0377799	310.217	93.75
12:43:03.918	2.04	0.0241212	310.236	93.75
12:43:03.928	2.05	0.0360565	310.254	93.75
12:43:03.938	2.06	-0.00145961	310.272	93.75
12:43:03.948	2.07	0.0354306	310.29	93.75
12:43:03.958	2.08	0.0897543	310.308	93.75
12:43:03.968	2.09	0.0703555	310.325	93.75
12:43:03.978	2.1	-0.00710147	310.342	93.75
12:43:03.988	2.11	-0.0686207	310.358	93.75
12:43:03.998	2.12	-0.130947	310.375	93.75
12:43:04.008	2.13	-0.157	310.391	93.75
12:43:04.018	2.14	-0.160074	310.406	93.75
12:43:04.028	2.15	-0.167037	310.421	93.75
12:43:04.038	2.16	-0.20557	310.436	93.75
12:43:04.048	2.17	-0.310186	310.451	93.75
12:43:04.058	2.18	-0.364721	310.465	93.75
12:43:04.068	2.19	-0.358771	310.479	93.75
12:43:04.078	2.2	-0.29793	310.492	93.75
12:43:04.088	2.21	-0.196787	310.505	93.75
12:43:04.098	2.22	-0.0380997	310.518	93.75
12:43:04.108	2.23	0.0987597	310.53	93.75
12:43:04.118	2.24	0.125969	310.542	93.75
12:43:04.128	2.25	0.130151	310.554	93.75
12:43:04.138	2.26	0.137738	310.565	93.75
12:43:04.148	2.27	0.0235115	310.576	93.75
12:43:04.158	2.28	-0.17017	310.586	93.75
12:43:04.168	2.29	-0.210825	310.596	93.75
12:43:04.178	2.3	-0.207122	310.606	93.75
12:43:04.188	2.31	-0.167266	310.616	93.75
12:43:04.198	2.32	-0.0745822	310.625	93.75
12:43:04.208	2.33	0.0099033	310.633	93.75
12:43:04.218	2.34	0.0532206	310.642	93.75
12:43:04.228	2.35	0.0480161	310.65	93.75
12:43:04.238	2.36	0.0199411	310.658	93.75
12:43:04.248	2.37	0.0266186	310.665	93.75
12:43:04.258	2.38	0.0980071	310.672	93.75
12:43:04.268	2.39	0.214694	310.679	93.75
12:43:04.278	2.4	0.303712	310.685	111.111
12:43:04.288	2.41	0.252134	310.692	111.111
12:43:04.298	2.42	0.183308	310.697	111.111
12:43:04.308	2.43	0.172275	310.703	111.111
12:43:04.318	2.44	0.180501	310.708	111.111
12:43:04.328	2.45	0.176301	310.713	111.111
12:43:04.338	2.46	0.214338	310.718	111.111
12:43:04.348	2.47	0.213101	310.722	111.111
12:43:04.358	2.48	0.222408	310.727	111.111
12:43:04.368	2.49	0.247733	310.731	111.111
12:43:04.378	2.5	0.172475	310.734	111.111
12:43:04.388	2.51	0.0849128	310.738	111.111
12:43:04.398	2.52	0.03899	310.741	111.111
12:43:04.408	2.53	-0.020517	310.744	111.111
12:43:04.418	2.54	-0.0219829	310.747	111.111
12:43:04.428	2.55	0.0315615	310.75	111.111
12:43:04.438	2.56	0.0735346	310.752	111.111
12:43:04.448	2.57	0.127214	310.754	111.111
12:43:04.458	2.58	0.123653	310.756	111.111
12:43:04.468	2.59	0.113499	310.758	111.111
12:43:04.478	2.6	0.0857812	310.76	111.111
12:43:04.488	2.61	-0.00118282	310.761	111.111
12:43:04.498	2.62	-0.127486	310.763	111.111
12:43:04.508	2.63	-0.204128	310.764	111.111
12:43:04.518	2.64	-0.211275	310.765	111.111
12:43:04.528	2.65	-0.171772	310.766	111.111
12:43:04.538	2.66	-0.103438	310.767	111.111
12:43:04.548	2.67	-0.0256358	310.767	111.111
12:43:04.558	2.68	0.0547663	310.768	111.111
12:43:04.568	2.69	0.0466732	310.768	111.111
12:43:04.578	2.7	0.0314305	310.768	111.111
12:43:04.588	2.71	-0.0428012	310.769	111.111
12:43:04.598	2.72	-0.109413	310.769	111.111
12:43:04.608	2.73	-0.0940025	310.769	111.111
12:43:04.618	2.74	-0.0367208	310.769	111.111
12:43:04.628	2.75	0.00519458	310.769	111.111
12:43:04.638	2.76	0.0126592	310.768	111.111
12:43:04.648	2.77	-0.0179088	310.768	111.111
12:43:04.658	2.78	-0.167842	310.768	111.111
12:43:04.668	2.79	-0.282431	310.767	111.111
12:43:04.678	2.8	-0.39229	310.767	111.111
12:43:04.688	2.81	-0.434988	310.766	111.111
12:43:04.698	2.82	-0.464113	310.766	111.111
12:43:04.708	2.83	-0.406978	310.765	111.111
12:43:04.718	2.84	-0.317125	310.765	111.111
12:43:04.728	2.85	-0.233965	310.764	111.111
12:43:04.738	2.86	-0.134127	310.763	111.111
12:43:04.748	2.87	-0.0658835	310.762	111.111
12:43:04.758	2.88	-0.0846933	310.762	111.111
12:43:04.768	2.89	-0.12624	310.761	111.111
12:43:04.778	2.9	-0.0709338	310.76	111.111
12:43:04.788	2.91	0.0901619	310.759	111.111
12:43:04.798	2.92	0.333732	310.758	111.111
12:43:04.808	2.93	0.516196	310.757	111.111
12:43:04.818	2.94	0.571331	310.756	300
12:43:04.828	2.95	0.497472	310.755	300
12:43:04.838	2.96	0.372844	310.754	300
12:43:04.848	2.97	0.181562	310.753	300
12:43:04.858	2.98	0.0553573	310.752	300
12:43:04.868	2.99	-0.0165593	310.751	300
12:43:04.878	3	-0.0439977	310.75	300
12:43:04.888	3.01	-0.0395994	310.749	300
12:43:04.898	3.02	-0.0384982	310.748	300
12:43:04.908	3.03	-0.0181208	310.747	300
12:43:04.918	3.04	0.0616394	310.746	300
12:43:04.928	3.05	0.0853736	310.745	300
12:43:04.938	3.06	0.0192967	310.744	300
12:43:04.948	3.07	-0.0309735	310.743	300
12:43:04.958	3.08	2.86789e-05	310.741	300
12:43:04.968	3.09	0.0922954	310.74	300
12:43:04.978	3.1	0.182213	310.739	300
12:43:04.988	3.11	0.27606	310.738	300
12:43:04.998	3.12	0.357814	310.737	300
12:43:05.008	3.13	0.385268	310.735	300
12:43:05.018	3.14	0.393099	310.734	96.7742
12:43:05.028	3.15	0.387027	310.733	96.7742
12:43:05.038	3.16	0.345209	310.732	96.7742
12:43:05.048	3.17	0.235633	310.73	96.7742
12:43:05.058	3.18	0.111753	310.729	96.7742
12:43:05.068	3.19	0.0188556	310.728	96.7742
12:43:05.078	3.2	-0.0809514	310.727	96.7742
12:43:05.088	3.21	-0.130071	310.725	96.7742
12:43:05.098	3.22	-0.148603	310.724	96.7742
12:43:05.108	3.23	-0.14869	310.723	96.7742
12:43:05.118	3.24	-0.119294	310.721	96.7742
12:43:05.128	3.25	-0.0952175	310.72	96.7742
12:43:05.138	3.26	-0.0327238	310.719	96.7742
12:43:05.148	3.27	0.0247717	310.717	96.7742
12:43:05.158	3.28	0.0502617	310.716	96.7742
12:43:05.168	3.29	0.120425	310.715	96.7742
12:43:05.178	3.3	0.178943	310.713	96.7742
12:43:05.188	3.31	0.121752	310.712	96.7742
12:43:05.198	3.32	0.0141248	310.71	96.7742
12:43:05.208	3.33	-0.0620058	310.709	96.7742
12:43:05.218	3.34	-0.0763936	310.708	96.7742
12:43:05.228	3.35	-0.0373042	310.706	96.7742
12:43:05.238	3.36	0.035364	310.705	96.7742
12:43:05.248	3.37	0.0467814	310.703	96.7742
12:43:05.258	3.38	0.0429299	310.702	96.7742
12:43:05.268	3.39	0.0308424	310.701	96.7742
12:43:05.278	3.4	0.00589912	310.699	96.7742
12:43:05.288	3.41	-0.0240859	310.698	96.7742
12:43:05.298	3.42	-0.0644779	310.696	96.7742
12:43:05.308	3.43	-0.101019	310.695	96.7742
12:43:05.318	3.44	-0.131213	310.694	96.7742
12:43:05.328	3.45	-0.117454	310.692	96.7742
12:43:05.338	3.46	-0.0529419	310.691	96.7742
12:43:05.348	3.47	0.0284298	310.689	96.7742
12:43:05.358	3.48	0.0714567	310.688	96.7742
12:43:05.368	3.49	0.0619372	310.686	96.7742
12:43:05.378	3.5	0.00626002	310.685	96.7742
12:43:05.388	3.51	-0.0330739	310.684	96.7742
12:43:05.398	3.52	-0.062469	310.682	96.7742
12:43:05.408	3.53	-0.102922	310.681	96.7742
12:43:05.418	3.54	-0.118317	310.679	96.7742
12:43:05.428	3.55	-0.0971059	310.678	96.7742
12:43:05.438	3.56	-0.0821932	310.677	96.7742
12:43:05.448	3.57	-0.149228	310.675	96.7742
12:43:05.458	3.58	-0.227164	310.674	96.7742
12:43:05.468	3.59	-0.239933	310.673	96.7742
12:43:05.478	3.6	-0.206443	310.671	96.7742
12:43:05.488	3.61	-0.166846	310.67	96.7742
12:43:05.498	3.62	-0.107245	310.669	96.7742
12:43:05.508	3.63	0.00587564	310.667	96.7742
12:43:05.518	3.64	0.117349	310.666	96.7742
12:43:05.528	3.65	0.140248	310.665	96.7742
12:43:05.538	3.66	0.107952	310.664	96.7742
12:43:05.548	3.67	0.100792	310.662	96.7742
12:43:05.558	3.68	0.0887731	310.661	96.7742
12:43:05.568	3.69	0.0706584	310.66	96.7742
12:43:05.578	3.7	0.0838412	310.659	96.7742
12:43:05.588	3.71	0.117519	310.657	96.7742
12:43:05.598	3.72	0.140604	310.656	96.7742
12:43:05.608	3.73	0.173929	310.655	96.7742
12:43:05.618	3.74	0.226904	310.654	96.7742
12:43:05.628	3.75	0.301468	310.653	96.7742
12:43:05.638	3.76	0.345237	310.652	48
12:43:05.648	3.77	0.342701	310.651	48
12:43:05.658	3.78	0.311641	310.649	48
12:43:05.668	3.79	0.298748	310.648	48
12:43:05.678	3.8	0.270238	310.647	48
12:43:05.688	3.81	0.137425	310.646	48
12:43:05.698	3.82	0.0188099	310.645	48
12:43:05.708	3.83	-0.0176843	310.644	48
12:43:05.718	3.84	-0.0160406	310.643	48
12:43:05.728	3.85	-0.00621874	310.642	48
12:43:05.738	3.86	0.0639778	310.641	48
12:43:05.748	3.87	0.137605	310.64	48
12:43:05.758	3.88	0.160325	310.639	48
12:43:05.768	3.89	0.148045	310.638	48
12:43:05.778	3.9	0.0755577	310.637	48
12:43:05.788	3.91	-0.042905	310.637	48
12:43:05.798	3.92	-0.19567	310.636	48
12:43:05.808	3.93	-0.292484	310.635	48
12:43:05.818	3.94	-0.281472	310.634	48
12:43:05.828	3.95	-0.227635	310.633	48
12:43:05.838	3.96	-0.151103	310.632	48
12:43:05.848	3.97	-0.0231971	310.632	48
12:43:05.858	3.98	0.0776735	310.631	48
12:43:05.868	3.99	0.0122183	310.63	48
12:43:05.878	4	-0.0643334	310.629	48
12:43:05.888	4.01	-0.142774	310.629	48
12:43:05.897	4.02	-0.298969	310.628	48
12:43:05.908	4.03	-0.374428	310.627	48
12:43:05.918	4.04	-0.468056	310.627	48
12:43:05.928	4.05	-0.525764	310.626	48
12:43:05.937	4.06	-0.453258	310.625	48
12:43:05.948	4.07	-0.337612	310.625	48
12:43:05.958	4.08	-0.189578	310.624	48
12:43:05.968	4.09	-0.0714251	310.624	48
12:43:05.978	4.1	-0.0235699	310.623	48
12:43:05.988	4.11	-0.0320505	310.623	48
12:43:05.998	4.12	-0.0604746	310.622	48
12:43:06.008	4.13	-0.111246	310.621	48
12:43:06.018	4.14	-0.156739	310.621	48
12:43:06.028	4.15	-0.196855	310.62	48
12:43:06.038	4.16	-0.124213	310.62	48
12:43:06.048	4.17	-0.167406	310.62	48
12:43:06.058	4.18	-0.0607851	310.619	48
12:43:06.068	4.19	0.0686971	310.619	48
12:43:06.078	4.2	0.0654249	310.618	48
12:43:06.088	4.21	0.155806	310.618	48
12:43:06.098	4.22	0.22168	310.617	48
12:43:06.108	4.23	0.233936	310.617	48
12:43:06.118	4.24	0.230009	310.616	48
12:43:06.128	4.25	0.127979	310.616	48
12:43:06.138	4.26	-0.00701603	310.615	48
12:43:06.148	4.27	0.0195505	310.615	48
12:43:06.158	4.28	0.0531139	310.614	48
12:43:06.168	4.29	-0.0546015	310.614	48
12:43:06.178	4.3	-0.0912358	310.613	48
12:43:06.188	4.31	-0.0836857	310.613	48
12:43:06.198	4.32	-0.056774	310.612	48
12:43:06.208	4.33	0.054886	310.611	48
12:43:06.218	4.34	0.197255	310.611	48
12:43:06.228	4.35	0.242683	310.61	48
12:43:06.238	4.36	0.221959	310.61	48
12:43:06.248	4.37	0.127546	310.609	48
12:43:06.258	4.38	0.0465999	310.608	48
12:43:06.268	4.39	-0.0127296	310.608	48
12:43:06.278	4.4	-0.045259	310.607	48
12:43:06.288	4.41	-0.0777988	310.606	48
12:43:06.298	4.42	-0.0584702	310.605	48
12:43:06.308	4.43	-0.0334331	310.604	48
12:43:06.318	4.44	-0.0302626	310.604	48
12:43:06.328	4.45	-0.0059049	310.603	48
12:43:06.338	4.46	0.0392656	310.602	48
12:43:06.348	4.47	-0.0371265	310.601	48
12:43:06.358	4.48	-0.19235	310.6	48
12:43:06.368	4.49	-0.282669	310.599	48
12:43:06.378	4.5	-0.326145	310.598	48
12:43:06.388	4.51	-0.2764	310.597	48
12:43:06.398	4.52	-0.184674	310.596	48
12:43:06.408	4.53	-0.0983516	310.595	48
12:43:06.418	4.54	-0.0221418	310.594	48
12:43:06.428	4.55	0.000946379	310.593	48
12:43:06.438	4.56	-0.0101299	310.591	48
12:43:06.448	4.57	-0.0843127	310.59	48
12:43:06.458	4.58	-0.183521	310.589	48
12:43:06.468	4.59	-0.227691	310.588	48
12:43:06.478	4.6	-0.233498	310.587	48
12:43:06.488	4.61	-0.13252	310.585	48
12:43:06.498	4.62	0.0298171	310.584	48
12:43:06.508	4.63	0.161455	310.583	48
12:43:06.518	4.64	0.236559	310.581	48
12:43:06.528	4.65	0.237567	310.58	48
12:43:06.538	4.66	0.235266	310.579	48
12:43:06.548	4.67	0.202915	310.577	48
12:43:06.558	4.68	0.148081	310.576	48
12:43:06.568	4.69	0.104989	310.575	48
12:43:06.578	4.7	0.0705002	310.573	48
12:43:06.588	4.71	0.0724393	310.572	48
12:43:06.598	4.72	0.125614	310.57	48
12:43:06.608	4.73	0.141516	310.569	48
12:43:06.618	4.74	0.106692	310.568	48
12:43:06.628	4.75	0.0186781	310.566	48
12:43:06.638	4.76	-0.215157	310.565	48
12:43:06.648	4.77	-0.518866	310.563	48
12:43:06.658	4.78	-0.67294	310.562	48
12:43:06.668	4.79	-0.674247	310.56	48
12:43:06.678	4.8	-0.615662	310.559	48
12:43:06.688	4.81	-0.507223	310.557	48
12:43:06.698	4.82	-0.349934	310.556	48
12:43:06.708	4.83	-0.236614	310.554	48
12:43:06.718	4.84	-0.189783	310.553	48
12:43:06.728	4.85	-0.171303	310.551	48
12:43:06.738	4.86	-0.187251	310.55	48
12:43:06.748	4.87	-0.189273	310.549	48
12:43:06.758	4.88	-0.127924	310.547	48
12:43:06.768	4.89	-0.0905324	310.546	48
12:43:06.778	4.9	-0.128205	310.544	48
12:43:06.788	4.91	-0.15638	310.543	48
12:43:06.798	4.92	-0.205393	310.542	48
12:43:06.808	4.93	-0.177064	310.54	48
12:43:06.818	4.94	-0.168504	310.539	48
12:43:06.828	4.95	-0.151272	310.538	48
12:43:06.838	4.96	-0.0328018	310.536	48
12:43:06.848	4.97	0.0926716	310.535	48
12:43:06.858	4.98	0.192237	310.534	48
12:43:06.868	4.99	0.262799	310.532	48
12:43:06.878	5	0.274761	310.531	48
12:43:06.888	5.01	0.30534	310.53	500
12:43:06.898	5.02	0.256119	310.529	500
12:43:06.908	5.03	0.178208	310.528	500
12:43:06.918	5.04	0.157992	310.526	500
12:43:06.928	5.05	0.173002	310.525	500
12:43:06.938	5.06	0.131285	310.524	500
12:43:06.948	5.07	0.0309696	310.523	500
12:43:06.958	5.08	0.0355553	310.522	500
12:43:06.968	5.09	0.116242	310.521	500
12:43:06.978	5.1	0.166287	310.52	500
12:43:06.988	5.11	0.217596	310.519	500
12:43:06.998	5.12	0.27443	310.518	500
12:43:07.008	5.13	0.332003	310.517	98.3607
12:43:07.018	5.14	0.313963	310.516	98.3607
12:43:07.028	5.15	0.269938	310.515	98.3607
12:43:07.038	5.16	0.161557	310.514	98.3607
12:43:07.048	5.17	0.0937802	310.513	98.3607
12:43:07.058	5.18	0.0972375	310.512	98.3607
12:43:07.068	5.19	0.095442	310.511	98.3607
12:43:07.078	5.2	0.0526206	310.51	98.3607
12:43:07.088	5.21	-0.107545	310.509	98.3607
12:43:07.098	5.22	-0.254258	310.509	98.3607
12:43:07.108	5.23	-0.393619	310.508	98.3607
12:43:07.118	5.24	-0.460245	310.507	98.3607
12:43:07.128	5.25	-0.51482	310.507	98.3607
12:43:07.138	5.26	-0.538176	310.506	98.3607
12:43:07.148	5.27	-0.522238	310.506	98.3607
12:43:07.158	5.28	-0.515293	310.505	98.3607
12:43:07.168	5.29	-0.500383	310.505	98.3607
12:43:07.178	5.3	-0.457163	310.504	98.3607
12:43:07.188	5.31	-0.41871	310.504	98.3607
12:43:07.198	5.32	-0.346088	310.504	98.3607
12:43:07.208	5.33	-0.240492	310.503	98.3607
12:43:07.218	5.34	-0.153659	310.503	98.3607
12:43:07.228	5.35	-0.0518301	310.503	98.3607
12:43:07.238	5.36	0.0829654	310.503	98.3607
12:43:07.248	5.37	0.190265	310.502	98.3607
12:43:07.258	5.38	0.226333	310.502	98.3607
12:43:07.268	5.39	0.224438	310.502	98.3607
12:43:07.278	5.4	0.206936	310.502	98.3607
12:43:07.288	5.41	0.172746	310.502	98.3607
12:43:07.298	5.42	0.131343	310.502	98.3607
12:43:07.308	5.43	0.161641	310.502	98.3607
12:43:07.318	5.44	0.139822	310.502	98.3607
12:43:07.328	5.45	0.101226	310.503	98.3607
12:43:07.338	5.46	0.0916529	310.503	98.3607
12:43:07.348	5.47	0.0648321	310.503	98.3607
12:43:07.358	5.48	0.0571473	310.503	98.3607
12:43:07.368	5.49	0.0627704	310.503	98.3607
12:43:07.378	5.5	0.08439	310.504	98.3607
12:43:07.388	5.51	0.0872847	310.504	98.3607
12:43:07.398	5.52	0.0558128	310.504	98.3607
12:43:07.408	5.53	0.00375179	310.505	98.3607
12:43:07.418	5.54	0.0167238	310.505	98.3607
12:43:07.428	5.55	0.0636458	310.505	98.3607
12:43:07.438	5.56	0.108439	310.506	98.3607
12:43:07.448	5.57	0.10512	310.506	98.3607
12:43:07.458	5.58	0.161729	310.507	98.3607
12:43:07.468	5.59	0.242181	310.507	98.3607
12:43:07.478	5.6	0.265491	310.507	98.3607
12:43:07.488	5.61	0.213133	310.508	98.3607
12:43:07.498	5.62	0.186464	310.508	98.3607
12:43:07.508	5.63	0.135235	310.509	98.3607
12:43:07.518	5.64	0.165638	310.509	98.3607
12:43:07.528	5.65	0.251786	310.51	98.3607
12:43:07.538	5.66	0.318832	310.51	98.3607
12:43:07.548	5.67	0.373714	310.511	98.3607
12:43:07.558	5.68	0.45125	310.511	98.3607
12:43:07.568	5.69	0.540786	310.511	98.3607
12:43:07.578	5.7	0.600647	310.512	98.3607
12:43:07.588	5.71	0.618045	310.512	98.3607
12:43:07.598	5.72	0.639808	310.513	98.3607
12:43:07.608	5.73	0.718974	310.513	98.3607
12:43:07.618	5.74	0.742563	310.514	65.2174
12:43:07.628	5.75	0.657381	310.514	65.2174
12:43:07.638	5.76	0.509946	310.514	65.2174
12:43:07.648	5.77	0.32941	310.515	65.2174
12:43:07.658	5.78	0.104924	310.515	65.2174
12:43:07.668	5.79	-0.0511605	310.515	65.2174
12:43:07.678	5.8	-0.134869	310.516	65.2174
12:43:07.688	5.81	-0.172058	310.516	65.2174
12:43:07.698	5.82	-0.179497	310.516	65.2174
12:43:07.708	5.83	-0.160762	310.516	65.2174
12:43:07.718	5.84	-0.137613	310.517	65.2174
12:43:07.728	5.85	-0.110295	310.517	65.2174
12:43:07.738	5.86	-0.137518	310.517	65.2174
12:43:07.748	5.87	-0.147229	310.517	65.2174
12:43:07.758	5.88	-0.147307	310.517	65.2174
12:43:07.768	5.89	-0.181191	310.518	65.2174
12:43:07.778	5.9	-0.246328	310.518	65.2174
12:43:07.788	5.91	-0.271548	310.518	65.2174
12:43:07.798	5.92	-0.227956	310.518	65.2174
12:43:07.808	5.93	-0.181414	310.518	65.2174
12:43:07.818	5.94	-0.135189	310.518	65.2174
12:43:07.828	5.95	-0.113944	310.518	65.2174
12:43:07.838	5.96	-0.149423	310.518	65.2174
12:43:07.848	5.97	-0.167762	310.518	65.2174
12:43:07.858	5.98	-0.220521	310.518	65.2174
12:43:07.868	5.99	-0.270538	310.518	65.2174
12:43:07.878	6	-0.325432	310.517	65.2174
12:43:07.888	6.01	-0.32154	310.517	65.2174
12:43:07.898	6.02	-0.24293	310.517	65.2174
12:43:07.908	6.03	-0.118431	310.517	65.2174
12:43:07.918	6.04	-0.0332997	310.517	65.2174
12:43:07.928	6.05	-0.0207222	310.517	65.2174
12:43:07.938	6.06	0.0355758	310.516	65.2174
12:43:07.948	6.07	0.0636783	310.516	65.2174
12:43:07.958	6.08	0.0763425	310.516	65.2174
12:43:07.968	6.09	0.0856547	310.516	65.2174
12:43:07.978	6.1	0.0653613	310.515	65.2174
12:43:07.988	6.11	0.101635	310.515	65.2174
12:43:07.998	6.12	0.145599	310.515	65.2174
12:43:08.008	6.13	0.151224	310.514	65.2174
12:43:08.018	6.14	0.141035	310.514	65.2174
12:43:08.028	6.15	0.12338	310.513	65.2174
12:43:08.038	6.16	0.0556109	310.513	65.2174
12:43:08.048	6.17	-0.0555161	310.513	65.2174
12:43:08.058	6.18	-0.149968	310.512	65.2174
12:43:08.068	6.19	-0.184586	310.512	65.2174
12:43:08.078	6.2	-0.152243	310.511	65.2174
12:43:08.088	6.21	-0.0850948	310.511	65.2174
12:43:08.098	6.22	-0.0460875	310.51	65.2174
12:43:08.108	6.23	-0.0203678	310.51	65.2174
12:43:08.118	6.24	-0.0590088	310.509	65.2174
12:43:08.128	6.25	-0.077182	310.509	65.2174
12:43:08.138	6.26	-0.0540798	310.508	65.2174
12:43:08.148	6.27	-0.0509671	310.508	65.2174
12:43:08.158	6.28	-0.00385074	310.507	65.2174
12:43:08.168	6.29	0.00830025	310.507	65.2174
12:43:08.178	6.3	-0.00607311	310.506	65.2174
12:43:08.188	6.31	-0.021525	310.506	65.2174
12:43:08.198	6.32	0.0403972	310.505	65.2174
12:43:08.208	6.33	0.0750306	310.505	65.2174
12:43:08.218	6.34	-0.0114499	310.504	65.2174
12:43:08.228	6.35	-0.150218	310.504	65.2174
12:43:08.238	6.36	-0.237626	310.503	65.2174
12:43:08.248	6.37	-0.252557	310.503	65.2174
12:43:08.258	6.38	-0.246873	310.502	65.2174
12:43:08.268	6.39	-0.257039	310.501	65.2174
12:43:08.278	6.4	-0.211819	310.501	65.2174
12:43:08.288	6.41	-0.0774501	310.5	65.2174
12:43:08.298	6.42	-0.0483658	310.5	65.2174
12:43:08.308	6.43	-0.0449782	310.499	65.2174
12:43:08.318	6.44	0.0175945	310.499	65.2174
12:43:08.328	6.45	0.0450238	310.498	65.2174
12:43:08.338	6.46	0.122902	310.498	65.2174
12:43:08.348	6.47	0.160874	310.497	65.2174
12:43:08.358	6.48	0.21527	310.496	65.2174
12:43:08.368	6.49	0.183073	310.496	65.2174
12:43:08.378	6.5	0.0782956	310.495	65.2174
12:43:08.388	6.51	0.019684	310.495	65.2174
12:43:08.398	6.52	0.0556673	310.494	65.2174
12:43:08.408	6.53	0.0835999	310.494	65.2174
12:43:08.418	6.54	0.0814687	310.493	65.2174
12:43:08.428	6.55	0.0853486	310.493	65.2174
12:43:08.438	6.56	0.113804	310.492	65.2174
12:43:08.448	6.57	0.132315	310.492	65.2174
12:43:08.458	6.58	0.154956	310.491	65.2174
12:43:08.468	6.59	0.168377	310.491	65.2174
12:43:08.478	6.6	0.19488	310.49	65.2174
12:43:08.488	6.61	0.157324	310.49	65.2174
12:43:08.498	6.62	0.114847	310.489	65.2174
12:43:08.508	6.63	0.108454	310.489	65.2174
12:43:08.518	6.64	0.15237	310.489	65.2174
12:43:08.528	6.65	0.288794	310.488	65.2174
12:43:08.538	6.66	0.323382	310.488	750
12:43:08.548	6.67	0.304616	310.487	750
12:43:08.558	6.68	0.240594	310.487	750
12:43:08.568	6.69	0.087044	310.486	750
12:43:08.578	6.7	-0.0357173	310.486	750
12:43:08.588	6.71	0.0251024	310.486	750
12:43:08.598	6.72	0.181608	310.485	750
12:43:08.608	6.73	0.290609	310.485	750
12:43:08.618	6.74	0.341921	310.484	750
12:43:08.628	6.75	0.335979	310.484	750
12:43:08.638	6.76	0.25851	310.484	750
12:43:08.648	6.77	0.172533	310.483	750
12:43:08.658	6.78	0.134224	310.483	750
12:43:08.668	6.79	0.195781	310.483	750
12:43:08.678	6.8	0.332055	310.482	750
12:43:08.688	6.81	0.425743	310.482	750
12:43:08.698	6.82	0.486062	310.482	127.66
12:43:08.708	6.83	0.436874	310.482	127.66
12:43:08.718	6.84	0.236641	310.481	127.66
12:43:08.728	6.85	0.0402821	310.481	127.66
12:43:08.738	6.86	-0.122121	310.481	127.66
12:43:08.748	6.87	-0.289384	310.48	127.66
12:43:08.758	6.88	-0.298687	310.48	127.66
12:43:08.768	6.89	-0.261993	310.48	127.66
12:43:08.778	6.9	-0.200175	310.48	127.66
12:43:08.788	6.91	-0.131267	310.479	127.66
12:43:08.798	6.92	-0.0339712	310.479	127.66
12:43:08.808	6.93	0.0761834	310.479	127.66
12:43:08.818	6.94	0.155177	310.479	127.66
12:43:08.828	6.95	0.165358	310.479	127.66
12:43:08.838	6.96	0.195599	310.478	127.66
12:43:08.848	6.97	0.15604	310.478	127.66
12:43:08.858	6.98	-0.00959536	310.478	127.66
12:43:08.868	6.99	-0.233249	310.478	127.66
12:43:08.878	7	-0.369605	310.478	127.66
12:43:08.888	7.01	-0.348766	310.478	127.66
12:43:08.898	7.02	-0.279473	310.477	127.66
12:43:08.908	7.03	-0.182085	310.477	127.66
12:43:08.918	7.04	-0.138137	310.477	127.66
12:43:08.928	7.05	-0.157093	310.477	127.66
12:43:08.938	7.06	-0.186483	310.477	127.66
12:43:08.948	7.07	-0.219966	310.477	127.66
12:43:08.958	7.08	-0.240266	310.477	127.66
12:43:08.968	7.09	-0.229863	310.477	127.66
12:43:08.978	7.1	-0.173532	310.476	127.66
12:43:08.988	7.11	-0.0903108	310.476	127.66
12:43:08.998	7.12	-0.0267206	310.476	127.66
12:43:09.008	7.13	0.0235666	310.476	127.66
12:43:09.018	7.14	-0.062694	310.476	127.66
12:43:09.028	7.15	-0.186672	310.476	127.66
12:43:09.038	7.16	-0.246829	310.476	127.66
12:43:09.048	7.17	-0.227981	310.476	127.66
12:43:09.058	7.18	-0.183031	310.476	127.66
12:43:09.068	7.19	-0.0894387	310.476	127.66
12:43:09.078	7.2	0.0297636	310.476	127.66
12:43:09.088	7.21	0.138434	310.476	127.66
12:43:09.098	7.22	0.156972	310.475	127.66
12:43:09.108	7.23	0.124773	310.475	127.66
12:43:09.118	7.24	0.112385	310.475	127.66
12:43:09.128	7.25	0.0820372	310.475	127.66
12:43:09.138	7.26	0.0890245	310.475	127.66
12:43:09.148	7.27	0.170421	310.475	127.66
12:43:09.158	7.28	0.243617	310.475	127.66
12:43:09.168	7.29	0.271429	310.475	125
12:43:09.178	7.3	0.210579	310.475	125
12:43:09.188	7.31	0.172053	310.475	125
12:43:09.198	7.32	0.165371	310.475	125
12:43:09.208	7.33	0.113577	310.475	125
12:43:09.218	7.34	0.0179826	310.475	125
12:43:09.228	7.35	-0.0822318	310.475	125
12:43:09.238	7.36	-0.112741	310.475	125
12:43:09.248	7.37	-0.103025	310.475	125
12:43:09.258	7.38	-0.0959345	310.475	125
12:43:09.268	7.39	-0.0783173	310.475	125
12:43:09.278	7.4	-0.054528	310.475	125
12:43:09.288	7.41	-0.0746955	310.475	125
12:43:09.298	7.42	-0.0943214	310.475	125
12:43:09.308	7.43	-0.0559362	310.475	125
12:43:09.318	7.44	0.0463317	310.475	125
12:43:09.328	7.45	0.0997984	310.475	125
12:43:09.338	7.46	0.05387	310.475	125
12:43:09.348	7.47	-0.0673709	310.475	125
12:43:09.358	7.48	-0.178214	310.475	125
12:43:09.368	7.49	-0.291581	310.475	125
12:43:09.378	7.5	-0.367812	310.475	125
12:43:09.388	7.51	-0.373884	310.475	125
12:43:09.398	7.52	-0.311583	310.475	125
12:43:09.408	7.53	-0.176924	310.475	125
12:43:09.418	7.54	-0.0647688	310.475	125
12:43:09.428	7.55	0.000217023	310.475	125
12:43:09.438	7.56	0.0535278	310.475	125
12:43:09.448	7.57	0.0233777	310.475	125
12:43:09.458	7.58	-0.0244454	310.475	125
12:43:09.468	7.59	0.0430568	310.475	125
12:43:09.478	7.6	0.12893	310.475	125
12:43:09.488	7.61	0.216853	310.475	125
12:43:09.498	7.62	0.266422	310.475	125
12:43:09.508	7.63	0.159909	310.475	125
12:43:09.518	7.64	-0.0856074	310.475	125
12:43:09.528	7.65	-0.330426	310.475	125
12:43:09.538	7.66	-0.497359	310.475	125
12:43:09.548	7.67	-0.588295	310.475	125
12:43:09.558	7.68	-0.498563	310.475	125
12:43:09.568	7.69	-0.219605	310.475	125
12:43:09.578	7.7	-0.0111367	310.475	125
12:43:09.588	7.71	0.0629669	310.475	125
12:43:09.598	7.72	0.0982052	310.475	125
12:43:09.608	7.73	0.143518	310.474	125
12:43:09.618	7.74	0.176645	310.474	125
12:43:09.628	7.75	0.211837	310.474	125
12:43:09.638	7.76	0.318245	310.474	125
12:43:09.648	7.77	0.326004	310.474	600
12:43:09.658	7.78	0.0902231	310.474	600
12:43:09.668	7.79	-0.0725428	310.473	600
12:43:09.678	7.8	-0.196085	310.473	600
12:43:09.688	7.81	-0.205574	310.473	600
12:43:09.698	7.82	-0.154211	310.472	600
12:43:09.708	7.83	-0.0821388	310.472	600
12:43:09.718	7.84	0.119644	310.472	600
12:43:09.728	7.85	0.222014	310.471	600
12:43:09.738	7.86	0.450587	310.471	600
12:43:09.748	7.87	0.508691	310.47	600
12:43:09.758	7.88	0.36803	310.47	600
12:43:09.768	7.89	0.200468	310.469	600
12:43:09.778	7.9	0.0350897	310.469	600
12:43:09.788	7.91	0.0104903	310.468	600
12:43:09.798	7.92	0.0830374	310.467	600
12:43:09.808	7.93	0.213719	310.467	600
12:43:09.818	7.94	0.39172	310.466	600
12:43:09.828	7.95	0.56163	310.465	600
12:43:09.838	7.96	0.617346	310.464	600
12:43:09.848	7.97	0.632656	310.463	101.695
12:43:09.858	7.98	0.522438	310.462	101.695
12:43:09.868	7.99	0.343583	310.461	101.695
12:43:09.878	8	0.265631	310.46	101.695
12:43:09.888	8.01	0.291806	310.459	101.695
12:43:09.898	8.02	0.372033	310.458	101.695
12:43:09.907	8.03	0.438222	310.457	101.695
12:43:09.917	8.04	0.454236	310.455	101.695
12:43:09.928	8.05	0.267231	310.454	101.695
12:43:09.938	8.06	0.032862	310.453	101.695
12:43:09.948	8.07	-0.104064	310.451	101.695
12:43:09.958	8.08	-0.222741	310.45	101.695
12:43:09.968	8.09	-0.240002	310.448	101.695
12:43:09.978	8.1	-0.224514	310.447	101.695
12:43:09.987	8.11	-0.142694	310.445	101.695
12:43:09.997	8.12	-0.00352715	310.443	101.695
12:43:10.008	8.13	0.0880455	310.441	101.695
12:43:10.018	8.14	0.0622545	310.44	101.695
12:43:10.028	8.15	0.0314573	310.438	101.695
12:43:10.038	8.16	-0.0414545	310.436	101.695
12:43:10.048	8.17	-0.154794	310.434	101.695
12:43:10.058	8.18	-0.245326	310.432	101.695
12:43:10.067	8.19	-0.288552	310.43	101.695
12:43:10.078	8.2	-0.282707	310.427	101.695
12:43:10.088	8.21	-0.270045	310.425	101.695
12:43:10.098	8.22	-0.316994	310.423	101.695
12:43:10.108	8.23	-0.377856	310.421	101.695
12:43:10.118	8.24	-0.389992	310.418	101.695
12:43:10.128	8.25	-0.376486	310.416	101.695
12:43:10.138	8.26	-0.283863	310.414	101.695
12:43:10.148	8.27	-0.217019	310.411	101.695
12:43:10.158	8.28	-0.212828	310.409	101.695
12:43:10.168	8.29	-0.148668	310.406	101.695
12:43:10.178	8.3	0.00312749	310.404	101.695
12:43:10.188	8.31	0.119822	310.401	101.695
12:43:10.198	8.32	-0.0131815	310.398	101.695
12:43:10.208	8.33	-0.294164	310.396	101.695
12:43:10.218	8.34	-0.364523	310.393	101.695
12:43:10.228	8.35	-0.230346	310.39	101.695
12:43:10.238	8.36	-0.0309887	310.388	101.695
12:43:10.248	8.37	0.0821675	310.385	101.695
12:43:10.258	8.38	0.129639	310.382	101.695
12:43:10.268	8.39	-0.0396448	310.379	101.695
12:43:10.278	8.4	-0.316028	310.377	101.695
12:43:10.288	8.41	-0.545657	310.374	101.695
12:43:10.298	8.42	-0.627042	310.371	101.695
12:43:10.308	8.43	-0.608668	310.368	101.695
12:43:10.318	8.44	-0.438481	310.365	101.695
12:43:10.328	8.45	-0.168111	310.362	101.695
12:43:10.338	8.46	0.0576724	310.359	101.695
12:43:10.348	8.47	0.172207	310.356	101.695
12:43:10.358	8.48	0.0557314	310.353	101.695
12:43:10.368	8.49	-0.118476	310.35	101.695
12:43:10.378	8.5	-0.233897	310.347	101.695
12:43:10.388	8.51	-0.278592	310.344	101.695
12:43:10.398	8.52	-0.253513	310.341	101.695
12:43:10.408	8.53	-0.107925	310.338	101.695
12:43:10.418	8.54	0.0910861	310.335	101.695
12:43:10.428	8.55	0.290264	310.331	101.695
12:43:10.438	8.56	0.451359	310.328	545.455
12:43:10.448	8.57	0.427093	310.325	545.455
12:43:10.458	8.58	0.265053	310.322	545.455
12:43:10.468	8.59	0.165043	310.319	545.455
12:43:10.478	8.6	0.0458523	310.315	545.455
12:43:10.488	8.61	-0.0144978	310.312	545.455
12:43:10.498	8.62	0.000245817	310.309	545.455
12:43:10.508	8.63	0.051561	310.306	545.455
12:43:10.518	8.64	0.146355	310.302	545.455
12:43:10.528	8.65	0.261648	310.299	545.455
12:43:10.538	8.66	0.368576	310.296	545.455
12:43:10.548	8.67	0.421019	310.293	545.455
12:43:10.558	8.68	0.263016	310.289	545.455
12:43:10.568	8.69	0.0935431	310.286	545.455
12:43:10.578	8.7	-0.0103938	310.283	545.455
12:43:10.588	8.71	-0.0664277	310.279	545.455
12:43:10.598	8.72	-0.0472501	310.276	545.455
12:43:10.608	8.73	0.0195655	310.273	545.455
12:43:10.618	8.74	0.136966	310.269	545.455
12:43:10.628	8.75	0.307061	310.266	545.455
12:43:10.638	8.76	0.467781	310.263	545.455
12:43:10.648	8.77	0.571773	310.259	545.455
12:43:10.658	8.78	0.571952	310.256	352.941
12:43:10.668	8.79	0.427761	310.253	352.941
12:43:10.678	8.8	0.307328	310.25	352.941
12:43:10.688	8.81	0.248976	310.246	352.941
12:43:10.698	8.82	0.217686	310.243	352.941
12:43:10.708	8.83	0.130297	310.24	352.941
12:43:10.718	8.84	0.0755211	310.237	352.941
12:43:10.728	8.85	0.0309272	310.233	352.941
12:43:10.738	8.86	0.0872394	310.23	352.941
12:43:10.748	8.87	0.156011	310.227	352.941
12:43:10.758	8.88	0.182297	310.224	352.941
12:43:10.768	8.89	0.203322	310.221	352.941
12:43:10.778	8.9	0.220247	310.217	352.941
12:43:10.788	8.91	0.200795	310.214	352.941
12:43:10.798	8.92	0.157843	310.211	352.941
12:43:10.808	8.93	0.198433	310.208	352.941
12:43:10.818	8.94	0.297572	310.205	352.941
12:43:10.828	8.95	0.312737	310.202	500
12:43:10.838	8.96	0.278242	310.199	500
12:43:10.848	8.97	0.25997	310.196	500
12:43:10.858	8.98	0.23952	310.193	500
12:43:10.868	8.99	0.177067	310.19	500
12:43:10.878	9	0.109257	310.188	500
12:43:10.888	9.01	-0.0640231	310.185	500
12:43:10.898	9.02	-0.109448	310.182	500
12:43:10.908	9.03	-0.146898	310.179	500
12:43:10.918	9.04	-0.0796799	310.177	500
12:43:10.928	9.05	0.0360041	310.174	500
12:43:10.938	9.06	0.201245	310.171	500
12:43:10.948	9.07	0.291688	310.169	84.507
12:43:10.958	9.08	0.242618	310.166	84.507
12:43:10.968	9.09	0.070966	310.164	84.507
12:43:10.978	9.1	-0.110577	310.161	84.507
12:43:10.988	9.11	-0.196445	310.159	84.507
12:43:10.998	9.12	-0.16471	310.157	84.507
12:43:11.008	9.13	-0.00587374	310.155	84.507
12:43:11.018	9.14	0.144143	310.153	84.507
12:43:11.028	9.15	0.165347	310.15	84.507
12:43:11.038	9.16	0.0863703	310.148	84.507
12:43:11.048	9.17	-0.0493979	310.147	84.507
12:43:11.058	9.18	-0.132666	310.145	84.507
12:43:11.068	9.19	-0.149275	310.143	84.507
12:43:11.078	9.2	-0.101193	310.141	84.507
12:43:11.088	9.21	-0.0194855	310.139	84.507
12:43:11.098	9.22	0.0609033	310.138	84.507
12:43:11.108	9.23	0.112364	310.136	84.507
12:43:11.118	9.24	0.0794572	310.135	84.507
12:43:11.128	9.25	-0.0208969	310.134	84.507
12:43:11.138	9.26	-0.112734	310.132	84.507
12:43:11.148	9.27	-0.221002	310.131	84.507
12:43:11.158	9.28	-0.283684	310.13	84.507
12:43:11.168	9.29	-0.264646	310.129	84.507
12:43:11.178	9.3	-0.210941	310.128	84.507
12:43:11.188	9.31	-0.133526	310.127	84.507
12:43:11.198	9.32	-0.0107707	310.126	84.507
12:43:11.208	9.33	0.101269	310.125	84.507
12:43:11.218	9.34	0.105357	310.125	84.507
12:43:11.228	9.35	0.0960828	310.124	84.507
12:43:11.238	9.36	-0.0200811	310.123	84.507
12:43:11.248	9.37	-0.161429	310.123	84.507
12:43:11.258	9.38	-0.200878	310.122	84.507
12:43:11.268	9.39	-0.13797	310.122	84.507
12:43:11.278	9.4	-0.054906	310.122	84.507
12:43:11.288	9.41	0.0852586	310.122	84.507
12:43:11.298	9.42	0.220063	310.121	84.507
12:43:11.308	9.43	0.225729	310.121	84.507
12:43:11.318	9.44	0.0704708	310.121	84.507
12:43:11.328	9.45	-0.169589	310.121	84.507
12:43:11.338	9.46	-0.34165	310.121	84.507
12:43:11.348	9.47	-0.390177	310.122	84.507
12:43:11.358	9.48	-0.437599	310.122	84.507
12:43:11.368	9.49	-0.490134	310.122	84.507
12:43:11.378	9.5	-0.489507	310.122	84.507
12:43:11.388	9.51	-0.453415	310.123	84.507
12:43:11.398	9.52	-0.443541	310.123	84.507
12:43:11.408	9.53	-0.406654	310.124	84.507
12:43:11.418	9.54	-0.356629	310.124	84.507
12:43:11.428	9.55	-0.336545	310.125	84.507
12:43:11.438	9.56	-0.27042	310.125	84.507
12:43:11.448	9.57	-0.218582	310.126	84.507
12:43:11.458	9.58	-0.248616	310.127	84.507
12:43:11.468	9.59	-0.291467	310.127	84.507
12:43:11.478	9.6	-0.308869	310.128	84.507
12:43:11.488	9.61	-0.276466	310.129	84.507
12:43:11.498	9.62	-0.24677	310.13	84.507
12:43:11.508	9.63	-0.205091	310.13	84.507
12:43:11.518	9.64	-0.124793	310.131	84.507
12:43:11.528	9.65	-0.00675118	310.132	84.507
12:43:11.538	9.66	0.0975289	310.133	84.507
12:43:11.548	9.67	0.125354	310.134	84.507
12:43:11.558	9.68	0.141945	310.134	84.507
12:43:11.568	9.69	0.109134	310.135	84.507
12:43:11.578	9.7	0.0488273	310.136	84.507
12:43:11.588	9.71	-0.0113514	310.137	84.507
12:43:11.598	9.72	-0.0062201	310.138	84.507
12:43:11.608	9.73	0.12232	310.138	84.507
12:43:11.618	9.74	0.306051	310.139	84.507
12:43:11.628	9.75	0.449206	310.14	84.507
12:43:11.638	9.76	0.619252	310.141	84.507
12:43:11.648	9.77	0.800104	310.141	84.507
12:43:11.658	9.78	0.863458	310.142	98.3607
12:43:11.668	9.79	0.744871	310.143	98.3607
12:43:11.678	9.8	0.570841	310.143	98.3607
12:43:11.688	9.81	0.398821	310.144	98.3607
12:43:11.698	9.82	0.255884	310.145	98.3607
12:43:11.708	9.83	0.21656	310.145	98.3607
12:43:11.718	9.84	0.245103	310.146	98.3607
12:43:11.728	9.85	0.261832	310.146	98.3607
12:43:11.738	9.86	0.261624	310.147	98.3607
12:43:11.748	9.87	0.318099	310.147	98.3607
12:43:11.758	9.88	0.339734	310.147	98.3607
12:43:11.768	9.89	0.284576	310.148	98.3607
12:43:11.778	9.9	0.206818	310.148	98.3607
12:43:11.788	9.91	0.0911263	310.148	98.3607
12:43:11.798	9.92	0.01585	310.148	98.3607
12:43:11.808	9.93	-0.00951895	310.149	98.3607
12:43:11.818	9.94	0.00671115	310.149	98.3607
12:43:11.828	9.95	0.0398381	310.149	98.3607
12:43:11.838	9.96	-0.0314473	310.149	98.3607
12:43:11.848	9.97	-0.12283	310.149	98.3607
12:43:11.858	9.98	-0.162667	310.149	98.3607
12:43:11.868	9.99	-0.182081	310.149	98.3607
12:43:11.878	10	-0.169582	310.149	98.3607
12:43:11.888	10.01	-0.116277	310.148	98.3607
12:43:11.898	10.02	-0.0200618	310.148	98.3607
12:43:11.908	10.03	0.0694992	310.148	98.3607
12:43:11.918	10.04	0.11923	310.148	98.3607
12:43:11.928	10.05	0.198352	310.147	98.3607
12:43:11.938	10.06	0.225123	310.147	98.3607
12:43:11.948	10.07	0.164661	310.147	98.3607
12:43:11.958	10.08	0.0794379	310.146	98.3607
12:43:11.968	10.09	0.0524241	310.146	98.3607
12:43:11.978	10.1	0.00384218	310.145	98.3607
12:43:11.988	10.11	-0.0730118	310.145	98.3607
12:43:11.998	10.12	-0.0509738	310.144	98.3607
12:43:12.008	10.13	-0.0345214	310.144	98.3607
12:43:12.018	10.14	-0.0289281	310.143	98.3607
12:43:12.028	10.15	-0.0271611	310.142	98.3607
12:43:12.038	10.16	-0.0643323	310.142	98.3607
12:43:12.048	10.17	-0.0856148	310.141	98.3607
12:43:12.058	10.18	-0.0780395	310.14	98.3607
12:43:12.068	10.19	-0.0650671	310.14	98.3607
12:43:12.078	10.2	-0.0995044	310.139	98.3607
12:43:12.088	10.21	-0.134823	310.138	98.3607
12:43:12.098	10.22	-0.17174	310.137	98.3607
12:43:12.108	10.23	-0.208248	310.136	98.3607
12:43:12.118	10.24	-0.183622	310.136	98.3607
12:43:12.128	10.25	-0.110943	310.135	98.3607
12:43:12.138	10.26	-0.0483935	310.134	98.3607
12:43:12.148	10.27	-0.0413137	310.133	98.3607
12:43:12.158	10.28	-0.0169342	310.132	98.3607
12:43:12.168	10.29	-0.0536932	310.131	98.3607
12:43:12.178	10.3	-0.122561	310.13	98.3607
12:43:12.188	10.31	-0.125273	310.129	98.3607
12:43:12.198	10.32	-0.12515	310.128	98.3607
12:43:12.208	10.33	-0.0533394	310.127	98.3607
12:43:12.218	10.34	0.0191511	310.126	98.3607
12:43:12.228	10.35	0.0838967	310.125	98.3607
12:43:12.238	10.36	0.174274	310.124	98.3607
12:43:12.248	10.37	0.260629	310.123	98.3607
12:43:12.258	10.38	0.369223	310.122	98.3607
12:43:12.268	10.39	0.441373	310.121	109.091
12:43:12.278	10.4	0.413785	310.12	109.091
12:43:12.288	10.41	0.329525	310.119	109.091
12:43:12.298	10.42	0.245806	310.118	109.091
12:43:12.308	10.43	0.111392	310.117	109.091
12:43:12.318	10.44	0.0283335	310.116	109.091
12:43:12.328	10.45	0.0173333	310.115	109.091
12:43:12.338	10.46	-0.00831091	310.114	109.091
12:43:12.348	10.47	-0.0547098	310.113	109.091
12:43:12.358	10.48	-0.05485	310.112	109.091
12:43:12.368	10.49	-0.0362588	310.111	109.091
12:43:12.378	10.5	-0.0486947	310.11	109.091
12:43:12.388	10.51	-0.0713143	310.109	109.091
12:43:12.398	10.52	-0.0607996	310.108	109.091
12:43:12.408	10.53	-0.0644004	310.107	109.091
12:43:12.418	10.54	-0.100353	310.107	109.091
12:43:12.428	10.55	-0.144611	310.106	109.091
12:43:12.438	10.56	-0.129883	310.105	109.091
12:43:12.448	10.57	-0.133447	310.104	109.091
12:43:12.458	10.58	-0.126388	310.103	109.091
12:43:12.468	10.59	-0.069791	310.102	109.091
12:43:12.478	10.6	0.00925421	310.101	109.091
12:43:12.488	10.61	0.134727	310.1	109.091
12:43:12.498	10.62	0.253549	310.099	109.091
12:43:12.508	10.63	0.118585	310.099	109.091
12:43:12.518	10.64	-0.0554911	310.098	109.091
12:43:12.528	10.65	-0.0744314	310.097	109.091
12:43:12.538	10.66	-0.0523505	310.096	109.091
12:43:12.548	10.67	-0.0992737	310.095	109.091
12:43:12.558	10.68	-0.162684	310.095	109.091
12:43:12.568	10.69	-0.149896	310.094	109.091
12:43:12.578	10.7	-0.0929828	310.093	109.091
12:43:12.588	10.71	-0.0115856	310.092	109.091
12:43:12.598	10.72	0.0260633	310.092	109.091
12:43:12.608	10.73	0.0244827	310.091	109.091
12:43:12.618	10.74	0.0247668	310.09	109.091
12:43:12.628	10.75	-0.107625	310.09	109.091
12:43:12.638	10.76	-0.251662	310.089	109.091
12:43:12.648	10.77	-0.290552	310.089	109.091
12:43:12.658	10.78	-0.304521	310.088	109.091
12:43:12.668	10.79	-0.290583	310.087	109.091
12:43:12.678	10.8	-0.206499	310.087	109.091
12:43:12.688	10.81	-0.0667475	310.086	109.091
12:43:12.698	10.82	0.0612718	310.086	109.091
12:43:12.708	10.83	0.181556	310.085	109.091
12:43:12.718	10.84	0.187211	310.085	109.091
12:43:12.728	10.85	0.120198	310.084	109.091
12:43:12.738	10.86	-0.036311	310.084	109.091
12:43:12.748	10.87	-0.243974	310.083	109.091
12:43:12.758	10.88	-0.359704	310.083	109.091
12:43:12.768	10.89	-0.321802	310.082	109.091
12:43:12.778	10.9	-0.192209	310.082	109.091
12:43:12.788	10.91	-0.0193073	310.081	109.091
12:43:12.798	10.92	0.164524	310.081	109.091
12:43:12.808	10.93	0.357826	310.081	109.091
12:43:12.818	10.94	0.440846	310.08	95.2381
12:43:12.828	10.95	0.343965	310.08	95.2381
12:43:12.838	10.96	0.323028	310.08	95.2381
12:43:12.848	10.97	0.217511	310.079	95.2381
12:43:12.858	10.98	0.104304	310.079	95.2381
12:43:12.868	10.99	0.088288	310.079	95.2381
12:43:12.878	11	0.105923	310.078	95.2381
12:43:12.888	11.01	-0.00995689	310.078	95.2381
12:43:12.898	11.02	-0.191612	310.078	95.2381
12:43:12.908	11.03	-0.358431	310.078	95.2381
12:43:12.918	11.04	-0.553642	310.077	95.2381
12:43:12.928	11.05	-0.637408	310.077	95.2381
12:43:12.938	11.06	-0.547917	310.077	95.2381
12:43:12.948	11.07	-0.440374	310.077	95.2381
12:43:12.958	11.08	-0.305259	310.076	95.2381
12:43:12.968	11.09	-0.289528	310.076	95.2381
12:43:12.978	11.1	-0.261653	310.076	95.2381
12:43:12.988	11.11	-0.381455	310.076	95.2381
12:43:12.998	11.12	-0.477461	310.076	95.2381
12:43:13.008	11.13	-0.454878	310.075	95.2381
12:43:13.018	11.14	-0.383775	310.075	95.2381
12:43:13.028	11.15	-0.293946	310.075	95.2381
12:43:13.038	11.16	-0.175589	310.075	95.2381
12:43:13.048	11.17	-0.125548	310.075	95.2381
12:43:13.058	11.18	-0.165449	310.074	95.2381
12:43:13.068	11.19	-0.165468	310.074	95.2381
12:43:13.078	11.2	-0.115532	310.074	95.2381
12:43:13.088	11.21	-0.111336	310.074	95.2381
12:43:13.098	11.22	-0.0938252	310.074	95.2381
12:43:13.108	11.23	-0.00847443	310.073	95.2381
12:43:13.118	11.24	0.0223114	310.073	95.2381
12:43:13.128	11.25	-0.0684556	310.073	95.2381
12:43:13.138	11.26	-0.29694	310.073	95.2381
12:43:13.148	11.27	-0.463601	310.072	95.2381
12:43:13.158	11.28	-0.515086	310.072	95.2381
12:43:13.168	11.29	-0.231241	310.072	95.2381
12:43:13.178	11.3	-0.0706123	310.071	95.2381
12:43:13.188	11.31	0.057987	310.071	95.2381
12:43:13.198	11.32	0.059261	310.07	95.2381
12:43:13.208	11.33	-0.0159889	310.07	95.2381
12:43:13.218	11.34	-0.0616683	310.069	95.2381
12:43:13.228	11.35	-0.129746	310.069	95.2381
12:43:13.238	11.36	-0.0853677	310.068	95.2381
12:43:13.248	11.37	0.0125141	310.068	95.2381
12:43:13.258	11.38	0.220861	310.067	95.2381
12:43:13.268	11.39	0.242553	310.067	95.2381
12:43:13.278	11.4	0.209428	310.066	95.2381
12:43:13.288	11.41	0.101606	310.065	95.2381
12:43:13.298	11.42	0.00822449	310.065	95.2381
12:43:13.308	11.43	0.0201178	310.064	95.2381
12:43:13.318	11.44	0.032603	310.063	95.2381
12:43:13.328	11.45	0.0433597	310.063	95.2381
12:43:13.338	11.46	-0.0787389	310.062	95.2381
12:43:13.348	11.47	-0.219695	310.061	95.2381
12:43:13.358	11.48	-0.240114	310.06	95.2381
12:43:13.368	11.49	-0.23089	310.06	95.2381
12:43:13.378	11.5	-0.187025	310.059	95.2381
12:43:13.388	11.51	-0.00934431	310.058	95.2381
12:43:13.398	11.52	0.145524	310.057	95.2381
12:43:13.408	11.53	0.25922	310.056	95.2381
12:43:13.418	11.54	0.370646	310.056	95.2381
12:43:13.428	11.55	0.465965	310.055	95.2381
12:43:13.438	11.56	0.56438	310.054	95.2381
12:43:13.448	11.57	0.57571	310.053	206.897
12:43:13.458	11.58	0.426271	310.052	206.897
12:43:13.468	11.59	0.285057	310.052	206.897
12:43:13.478	11.6	0.218421	310.051	206.897
12:43:13.488	11.61	0.258326	310.05	206.897
12:43:13.498	11.62	0.331758	310.049	206.897
12:43:13.508	11.63	0.35841	310.049	206.897
12:43:13.518	11.64	0.436551	310.048	206.897
12:43:13.528	11.65	0.449355	310.047	206.897
12:43:13.538	11.66	0.467416	310.047	206.897
12:43:13.548	11.67	0.474282	310.046	206.897
12:43:13.558	11.68	0.474379	310.046	206.897
12:43:13.568	11.69	0.402043	310.045	206.897
12:43:13.578	11.7	0.295989	310.045	206.897
12:43:13.588	11.71	0.215538	310.044	206.897
12:43:13.598	11.72	0.116352	310.044	206.897
12:43:13.608	11.73	0.0670003	310.043	206.897
12:43:13.618	11.74	-0.0125371	310.043	206.897
12:43:13.628	11.75	-0.190741	310.042	206.897
12:43:13.638	11.76	-0.394315	310.042	206.897
12:43:13.648	11.77	-0.567291	310.042	206.897
12:43:13.658	11.78	-0.714061	310.042	206.897
12:43:13.668	11.79	-0.774515	310.041	206.897
12:43:13.678	11.8	-0.737224	310.041	206.897
12:43:13.688	11.81	-0.693769	310.041	206.897
12:43:13.698	11.82	-0.575717	310.041	206.897
12:43:13.708	11.83	-0.360801	310.041	206.897
12:43:13.718	11.84	-0.1396	310.041	206.897
12:43:13.728	11.85	0.129201	310.041	206.897
12:43:13.738	11.86	0.36185	310.041	375
12:43:13.748	11.87	0.277354	310.041	375
12:43:13.758	11.88	-0.0516115	310.041	375
12:43:13.768	11.89	-0.258177	310.042	375
12:43:13.778	11.9	-0.331154	310.042	375
12:43:13.788	11.91	-0.302143	310.042	375
12:43:13.798	11.92	-0.195225	310.043	375
12:43:13.808	11.93	-0.0467229	310.043	375
12:43:13.818	11.94	0.107026	310.044	375
12:43:13.828	11.95	0.282486	310.044	375
12:43:13.838	11.96	0.363293	310.045	375
12:43:13.848	11.97	0.333961	310.046	375
12:43:13.858	11.98	0.324903	310.046	375
12:43:13.868	11.99	0.344731	310.047	375
12:43:13.878	12	0.418224	310.048	375
12:43:13.888	12.01	0.511856	310.049	375
12:43:13.898	12.02	0.581272	310.05	428.571
12:43:13.908	12.03	0.564433	310.051	428.571
12:43:13.918	12.04	0.477691	310.052	428.571
12:43:13.928	12.05	0.40932	310.053	428.571
12:43:13.938	12.06	0.368266	310.054	428.571
12:43:13.948	12.07	0.331847	310.055	428.571
12:43:13.958	12.08	0.313284	310.056	428.571
12:43:13.968	12.09	0.265861	310.058	428.571
12:43:13.978	12.1	0.210278	310.059	428.571
12:43:13.988	12.11	0.217133	310.06	428.571
12:43:13.998	12.12	0.28696	310.062	428.571
12:43:14.008	12.13	0.366869	310.063	428.571
12:43:14.018	12.14	0.430535	310.065	428.571
12:43:14.028	12.15	0.461164	310.066	428.571
12:43:14.038	12.16	0.472649	310.068	240
12:43:14.048	12.17	0.442447	310.07	240
12:43:14.058	12.18	0.325852	310.071	240
12:43:14.068	12.19	0.137515	310.073	240
12:43:14.078	12.2	0.068606	310.075	240
12:43:14.088	12.21	0.0449597	310.077	240
12:43:14.098	12.22	0.0230002	310.079	240
12:43:14.108	12.23	0.0379509	310.081	240
12:43:14.118	12.24	0.0544623	310.083	240
12:43:14.128	12.25	0.0355119	310.085	240
12:43:14.138	12.26	-0.0269091	310.087	240
12:43:14.148	12.27	-0.0383118	310.089	240
12:43:14.158	12.28	0.0571296	310.091	240
12:43:14.168	12.29	0.128064	310.093	240
12:43:14.178	12.3	0.162796	310.096	240
12:43:14.188	12.31	0.235208	310.098	240
12:43:14.198	12.32	0.199945	310.1	240
12:43:14.208	12.33	0.0492293	310.103	240
12:43:14.218	12.34	0.0193129	310.105	240
12:43:14.228	12.35	0.0354392	310.108	240
12:43:14.238	12.36	0.0420952	310.11	240
12:43:14.248	12.37	0.0647783	310.113	240
12:43:14.258	12.38	0.153215	310.115	240
12:43:14.268	12.39	0.212257	310.118	240
12:43:14.278	12.4	0.0298221	310.121	240
12:43:14.288	12.41	0.702432	310.123	2000
12:43:14.298	12.42	0.0535982	310.126	2000
12:43:14.308	12.43	-0.26284	310.129	2000
12:43:14.318	12.44	0.413404	310.132	1000
12:43:14.328	12.45	0.0387451	310.135	1000
12:43:14.338	12.46	0.154596	310.137	1000
12:43:14.348	12.47	0.476991	310.14	1000
12:43:14.358	12.48	0.220343	310.143	1000
12:43:14.368	12.49	0.562045	310.146	1000
12:43:14.378	12.5	0.675454	310.149	125
12:43:14.388	12.51	0.400212	310.152	125
12:43:14.398	12.52	0.382825	310.155	125
12:43:14.408	12.53	0.411752	310.158	125
12:43:14.418	12.54	0.387065	310.161	125
12:43:14.428	12.55	0.201412	310.165	125
12:43:14.438	12.56	-0.00503611	310.168	125
12:43:14.448	12.57	-0.0203298	310.171	125
12:43:14.458	12.58	-0.0233342	310.174	125
12:43:14.468	12.59	-0.201808	310.177	125
12:43:14.478	12.6	-0.245512	310.181	125
12:43:14.488	12.61	-0.197125	310.184	125
12:43:14.498	12.62	-0.190257	310.187	125
12:43:14.508	12.63	-0.181033	310.191	125
12:43:14.518	12.64	-0.108479	310.194	125
12:43:14.528	12.65	-0.00960303	310.197	125
12:43:14.538	12.66	0.0949203	310.201	125
12:43:14.548	12.67	0.173	310.204	125
12:43:14.558	12.68	0.146697	310.208	125
12:43:14.568	12.69	0.165699	310.211	125
12:43:14.578	12.7	0.20302	310.215	125
12:43:14.588	12.71	0.190539	310.218	125
12:43:14.598	12.72	0.149222	310.222	125
12:43:14.608	12.73	0.114303	310.225	125
12:43:14.618	12.74	0.118664	310.229	125
12:43:14.628	12.75	0.120203	310.232	125
12:43:14.638	12.76	0.0536344	310.236	125
12:43:14.648	12.77	0.0496296	310.24	125
12:43:14.658	12.78	0.0702938	310.243	125
12:43:14.668	12.79	0.0371074	310.247	125
12:43:14.678	12.8	0.0549323	310.25	125
12:43:14.688	12.81	0.0822533	310.254	125
12:43:14.698	12.82	0.112736	310.258	125
12:43:14.708	12.83	0.0912457	310.261	125
12:43:14.718	12.84	-0.00361715	310.265	125
12:43:14.728	12.85	-0.029915	310.268	125
12:43:14.738	12.86	0.0407367	310.272	125
12:43:14.748	12.87	0.0401088	310.276	125
12:43:14.758	12.88	0.0108309	310.279	125
12:43:14.768	12.89	-0.0259884	310.283	125
12:43:14.778	12.9	-0.0662082	310.286	125
12:43:14.788	12.91	-0.0589642	310.29	125
12:43:14.798	12.92	-0.0258788	310.293	125
12:43:14.808	12.93	0.0364899	310.297	125
12:43:14.818	12.94	0.1284	310.3	125
12:43:14.828	12.95	0.175096	310.304	125
12:43:14.838	12.96	0.229637	310.307	125
12:43:14.848	12.97	0.279034	310.311	125
12:43:14.858	12.98	0.291515	310.314	63.1579
12:43:14.868	12.99	0.263562	310.318	63.1579
12:43:14.878	13	0.108572	310.321	63.1579
12:43:14.888	13.01	-0.0679975	310.324	63.1579
12:43:14.898	13.02	-0.158736	310.328	63.1579
12:43:14.908	13.03	-0.212573	310.331	63.1579
12:43:14.918	13.04	-0.214614	310.334	63.1579
12:43:14.928	13.05	-0.131105	310.338	63.1579
12:43:14.938	13.06	-0.000998587	310.341	63.1579
12:43:14.948	13.07	0.0865129	310.344	63.1579
12:43:14.958	13.08	0.171905	310.347	63.1579
12:43:14.968	13.09	0.176925	310.35	63.1579
12:43:14.978	13.1	0.124633	310.353	63.1579
12:43:14.988	13.11	0.0311584	310.356	63.1579
12:43:14.998	13.12	-0.022201	310.359	63.1579
12:43:15.008	13.13	-0.0204115	310.362	63.1579
12:43:15.018	13.14	-0.0368941	310.365	63.1579
12:43:15.028	13.15	-0.0586317	310.368	63.1579
12:43:15.038	13.16	-0.0477682	310.371	63.1579
12:43:15.048	13.17	-0.0712235	310.374	63.1579
12:43:15.058	13.18	-0.154477	310.377	63.1579
12:43:15.068	13.19	-0.25004	310.38	63.1579
12:43:15.078	13.2	-0.330179	310.382	63.1579
12:43:15.088	13.21	-0.381895	310.385	63.1579
12:43:15.098	13.22	-0.335756	310.388	63.1579
12:43:15.108	13.23	-0.329608	310.39	63.1579
12:43:15.118	13.24	-0.409686	310.393	63.1579
12:43:15.128	13.25	-0.363627	310.395	63.1579
12:43:15.138	13.26	-0.238587	310.398	63.1579
12:43:15.148	13.27	-0.125454	310.4	63.1579
12:43:15.158	13.28	-0.0414773	310.402	63.1579
12:43:15.168	13.29	-0.0100724	310.405	63.1579
12:43:15.178	13.3	0.0600438	310.407	63.1579
12:43:15.188	13.31	0.137321	310.409	63.1579
12:43:15.198	13.32	0.197428	310.411	63.1579
12:43:15.208	13.33	0.214249	310.414	63.1579
12:43:15.218	13.34	0.185415	310.416	63.1579
12:43:15.228	13.35	0.21265	310.418	63.1579
12:43:15.238	13.36	0.250522	310.42	63.1579
12:43:15.248	13.37	0.210752	310.422	63.1579
12:43:15.258	13.38	0.104102	310.424	63.1579
12:43:15.268	13.39	-0.0355357	310.425	63.1579
12:43:15.278	13.4	-0.154708	310.427	63.1579
12:43:15.288	13.41	-0.179609	310.429	63.1579
12:43:15.298	13.42	-0.12671	310.431	63.1579
12:43:15.308	13.43	-0.0450717	310.432	63.1579
12:43:15.318	13.44	-0.0307072	310.434	63.1579
12:43:15.328	13.45	-0.0564703	310.436	63.1579
12:43:15.338	13.46	-0.0650152	310.437	63.1579
12:43:15.348	13.47	-0.0285616	310.439	63.1579
12:43:15.358	13.48	0.0307467	310.44	63.1579
12:43:15.368	13.49	0.0249259	310.441	63.1579
12:43:15.378	13.5	-0.030121	310.443	63.1579
12:43:15.388	13.51	-0.0581773	310.444	63.1579
12:43:15.398	13.52	-0.0799775	310.445	63.1579
12:43:15.408	13.53	-0.106022	310.446	63.1579
12:43:15.418	13.54	-0.094985	310.447	63.1579
12:43:15.428	13.55	-0.163195	310.448	63.1579
12:43:15.438	13.56	-0.225731	310.449	63.1579
12:43:15.448	13.57	-0.230754	310.45	63.1579
12:43:15.458	13.58	-0.207958	310.451	63.1579
12:43:15.468	13.59	-0.157081	310.451	63.1579
12:43:15.478	13.6	-0.119347	310.452	63.1579
12:43:15.488	13.61	-0.123964	310.452	63.1579
12:43:15.498	13.62	-0.171506	310.453	63.1579
12:43:15.508	13.63	-0.226116	310.453	63.1579
12:43:15.518	13.64	-0.195448	310.454	63.1579
12:43:15.528	13.65	-0.146454	310.454	63.1579
12:43:15.538	13.66	-0.132975	310.454	63.1579
12:43:15.548	13.67	-0.142003	310.455	63.1579
12:43:15.558	13.68	-0.0909209	310.455	63.1579
12:43:15.568	13.69	-0.135071	310.455	63.1579
12:43:15.578	13.7	-0.193336	310.455	63.1579
12:43:15.588	13.71	-0.193283	310.455	63.1579
12:43:15.598	13.72	-0.183244	310.455	63.1579
12:43:15.608	13.73	-0.129867	310.454	63.1579
12:43:15.618	13.74	-0.070646	310.454	63.1579
12:43:15.628	13.75	-0.00119356	310.454	63.1579
12:43:15.638	13.76	-0.0176973	310.453	63.1579
12:43:15.648	13.77	-0.0573574	310.453	63.1579
12:43:15.658	13.78	-0.0271257	310.453	63.1579
12:43:15.668	13.79	-0.0536262	310.452	63.1579
12:43:15.678	13.8	-0.0712525	310.451	63.1579
12:43:15.688	13.81	-0.0117337	310.451	63.1579
12:43:15.698	13.82	0.0151977	310.45	63.1579
12:43:15.708	13.83	0.00859922	310.449	63.1579
12:43:15.718	13.84	-0.0364902	310.448	63.1579
12:43:15.728	13.85	-0.098951	310.448	63.1579
12:43:15.738	13.86	-0.125926	310.447	63.1579
12:43:15.748	13.87	-0.108231	310.446	63.1579
12:43:15.758	13.88	-0.0254608	310.445	63.1579
12:43:15.768	13.89	0.106924	310.443	63.1579
12:43:15.778	13.9	0.185771	310.442	63.1579
12:43:15.788	13.91	0.191196	310.441	63.1579
12:43:15.798	13.92	0.246906	310.44	63.1579
12:43:15.808	13.93	0.287108	310.438	133.333
12:43:15.818	13.94	0.244054	310.437	133.333
12:43:15.828	13.95	0.145912	310.436	133.333
12:43:15.838	13.96	0.027807	310.434	133.333
12:43:15.848	13.97	-0.0447783	310.432	133.333
12:43:15.858	13.98	-0.0338587	310.431	133.333
12:43:15.868	13.99	-0.00493035	310.429	133.333
12:43:15.878	14	0.015299	310.427	133.333
12:43:15.888	14.01	-0.00246956	310.426	133.333
12:43:15.898	14.02	-0.0511453	310.424	133.333
12:43:15.908	14.03	-0.13989	310.422	133.333
12:43:15.918	14.04	-0.158966	310.42	133.333
12:43:15.928	14.05	-0.181638	310.418	133.333
12:43:15.938	14.06	-0.214063	310.416	133.333
12:43:15.948	14.07	-0.221572	310.414	133.333
12:43:15.958	14.08	-0.149591	310.412	133.333
12:43:15.968	14.09	-0.121424	310.41	133.333
12:43:15.978	14.1	-0.138944	310.408	133.333
12:43:15.988	14.11	-0.0842794	310.406	133.333
12:43:15.998	14.12	-0.0321224	310.403	133.333
12:43:16.008	14.13	0.0063201	310.401	133.333
12:43:16.018	14.14	0.112493	310.399	133.333
12:43:16.028	14.15	0.204362	310.396	133.333
12:43:16.038	14.16	0.221931	310.394	133.333
12:43:16.048	14.17	0.259842	310.392	133.333
12:43:16.058	14.18	0.240612	310.389	133.333
12:43:16.068	14.19	0.153787	310.387	133.333
12:43:16.078	14.2	-0.0108201	310.384	133.333
12:43:16.088	14.21	0.0854309	310.382	133.333
12:43:16.098	14.22	-0.0326155	310.379	133.333
12:43:16.108	14.23	-0.0512995	310.376	133.333
12:43:16.118	14.24	-0.0608369	310.374	133.333
12:43:16.128	14.25	-0.124561	310.371	133.333
12:43:16.138	14.26	-0.0111757	310.368	133.333
12:43:16.148	14.27	0.0644265	310.366	133.333
12:43:16.158	14.28	0.104412	310.363	133.333
12:43:16.168	14.29	0.0548708	310.36	133.333
12:43:16.178	14.3	-0.115925	310.357	133.333
12:43:16.188	14.31	-0.28826	310.355	133.333
12:43:16.198	14.32	-0.381121	310.352	133.333
12:43:16.208	14.33	-0.393284	310.349	133.333
12:43:16.218	14.34	-0.274272	310.346	133.333
12:43:16.228	14.35	-0.0413408	310.343	133.333
12:43:16.238	14.36	0.302136	310.34	133.333
12:43:16.248	14.37	0.529606	310.337	133.333
12:43:16.258	14.38	0.570453	310.334	193.548
12:43:16.268	14.39	0.435592	310.331	193.548
12:43:16.278	14.4	0.207604	310.328	193.548
12:43:16.288	14.41	0.0774595	310.325	193.548
12:43:16.298	14.42	0.149432	310.322	193.548
12:43:16.308	14.43	0.115822	310.319	193.548
12:43:16.318	14.44	0.0145067	310.316	193.548
12:43:16.328	14.45	-0.121337	310.313	193.548
12:43:16.338	14.46	-0.234741	310.31	193.548
12:43:16.348	14.47	-0.232694	310.306	193.548
12:43:16.358	14.48	-0.145098	310.303	193.548
12:43:16.368	14.49	-0.05223	310.3	193.548
12:43:16.378	14.5	-0.0174642	310.297	193.548
12:43:16.388	14.51	-0.0386098	310.294	193.548
12:43:16.398	14.52	-0.0416225	310.29	193.548
12:43:16.408	14.53	-0.0721034	310.287	193.548
12:43:16.418	14.54	-0.0838357	310.284	193.548
12:43:16.428	14.55	-0.0848458	310.281	193.548
12:43:16.438	14.56	-0.123364	310.277	193.548
12:43:16.448	14.57	-0.120666	310.274	193.548
12:43:16.458	14.58	-0.0156026	310.271	193.548
12:43:16.468	14.59	0.0876311	310.268	193.548
12:43:16.478	14.6	0.169105	310.264	193.548
12:43:16.488	14.61	0.228063	310.261	193.548
12:43:16.498	14.62	0.296809	310.258	193.548
12:43:16.508	14.63	0.470637	310.255	193.548
12:43:16.518	14.64	0.624312	310.251	193.548
12:43:16.528	14.65	0.742644	310.248	193.548
12:43:16.538	14.66	0.734723	310.245	193.548
12:43:16.548	14.67	0.816774	310.242	193.548
12:43:16.558	14.68	1.0342	310.239	193.548
12:43:16.568	14.69	1.06728	310.235	428.571
12:43:16.578	14.7	0.648738	310.232	428.571
12:43:16.588	14.71	0.52224	310.229	428.571
12:43:16.598	14.72	0.271211	310.226	428.571
12:43:16.608	14.73	-0.387211	310.223	428.571
12:43:16.618	14.74	-0.622153	310.22	428.571
12:43:16.628	14.75	-0.65124	310.216	428.571
12:43:16.638	14.76	-0.706161	310.213	428.571
12:43:16.648	14.77	-0.594709	310.21	428.571
12:43:16.658	14.78	-0.284195	310.207	428.571
12:43:16.668	14.79	-0.0809535	310.204	428.571
12:43:16.678	14.8	0.193549	310.201	428.571
12:43:16.688	14.81	0.377254	310.198	428.571
12:43:16.698	14.82	0.49108	310.195	428.571
12:43:16.708	14.83	0.548529	310.192	193.548
12:43:16.718	14.84	0.478778	310.19	193.548
12:43:16.728	14.85	0.289942	310.187	193.548
12:43:16.738	14.86	-0.00201137	310.184	193.548
12:43:16.748	14.87	-0.410693	310.181	193.548
12:43:16.758	14.88	-0.617623	310.178	193.548
12:43:16.768	14.89	-0.667557	310.176	193.548
12:43:16.778	14.9	-0.699761	310.173	193.548
12:43:16.788	14.91	-0.761634	310.17	193.548
12:43:16.798	14.92	-0.792529	310.168	193.548
12:43:16.808	14.93	-0.642817	310.165	193.548
12:43:16.818	14.94	-0.454635	310.163	193.548
12:43:16.828	14.95	-0.282791	310.16	193.548
12:43:16.838	14.96	0.105695	310.158	193.548
12:43:16.848	14.97	0.0932431	310.155	193.548
12:43:16.858	14.98	-0.239419	310.153	193.548
12:43:16.868	14.99	-0.0263049	310.151	193.548
12:43:16.878	15	-0.0943558	310.148	193.548
12:43:16.888	15.01	-0.252399	310.146	193.548
12:43:16.898	15.02	-0.0733586	310.144	193.548
12:43:16.908	15.03	-0.324942	310.142	193.548
12:43:16.918	15.04	-0.492313	310.14	193.548
12:43:16.928	15.05	-0.313936	310.138	193.548
12:43:16.938	15.06	-0.546907	310.136	193.548
12:43:16.948	15.07	-0.612515	310.134	193.548
12:43:16.958	15.08	-0.34327	310.132	193.548
12:43:16.968	15.09	-0.309256	310.13	193.548
12:43:16.978	15.1	-0.234874	310.129	193.548
12:43:16.988	15.11	0.0638814	310.127	193.548
12:43:16.998	15.12	0.279622	310.125	193.548
12:43:17.008	15.13	0.522696	310.124	193.548
12:43:17.018	15.14	0.669743	310.122	171.429
12:43:17.028	15.15	0.367174	310.121	171.429
12:43:17.038	15.16	0.211545	310.12	171.429
12:43:17.048	15.17	0.291122	310.119	171.429
12:43:17.058	15.18	0.220165	310.118	171.429
12:43:17.068	15.19	0.0940371	310.116	171.429
12:43:17.078	15.2	0.0128874	310.115	171.429
12:43:17.088	15.21	-0.0310716	310.115	171.429
12:43:17.098	15.22	-0.00215279	310.114	171.429
12:43:17.108	15.23	-0.113314	310.113	171.429
12:43:17.118	15.24	-0.188953	310.112	171.429
12:43:17.128	15.25	-0.0801418	310.112	171.429
12:43:17.138	15.26	-0.119256	310.111	171.429
12:43:17.148	15.27	-0.292063	310.111	171.429
12:43:17.158	15.28	-0.418181	310.11	171.429
12:43:17.168	15.29	-0.619018	310.11	171.429
12:43:17.178	15.3	-0.633287	310.109	171.429
12:43:17.188	15.31	-0.444657	310.109	171.429
12:43:17.198	15.32	-0.297239	310.109	171.429
12:43:17.208	15.33	-0.161325	310.109	171.429
12:43:17.218	15.34	-0.0299698	310.109	171.429
12:43:17.228	15.35	0.0694458	310.109	171.429
12:43:17.238	15.36	0.134925	310.108	171.429
12:43:17.248	15.37	0.104865	310.109	171.429
12:43:17.258	15.38	0.00759644	310.109	171.429
12:43:17.268	15.39	-0.0670762	310.109	171.429
12:43:17.278	15.4	-0.117373	310.109	171.429
12:43:17.288	15.41	-0.0875293	310.109	171.429
12:43:17.298	15.42	-0.0604138	310.109	171.429
12:43:17.308	15.43	-0.0627326	310.109	171.429
12:43:17.318	15.44	-0.0393936	310.11	171.429
12:43:17.328	15.45	0.0321525	310.11	171.429
12:43:17.338	15.46	0.173827	310.11	171.429
12:43:17.348	15.47	0.361311	310.11	171.429
12:43:17.358	15.48	0.54148	310.111	171.429
12:43:17.368	15.49	0.588744	310.111	38.4615
12:43:17.378	15.5	0.402016	310.111	38.4615
12:43:17.388	15.51	0.221401	310.112	38.4615
12:43:17.398	15.52	0.156668	310.112	38.4615
12:43:17.408	15.53	0.143484	310.112	38.4615
12:43:17.418	15.54	0.198152	310.113	38.4615
12:43:17.428	15.55	0.211751	310.113	38.4615
12:43:17.438	15.56	0.231867	310.113	38.4615
12:43:17.448	15.57	0.26244	310.114	38.4615
12:43:17.458	15.58	0.260568	310.114	38.4615
12:43:17.468	15.59	0.232868	310.114	38.4615
12:43:17.478	15.6	0.120327	310.114	38.4615
12:43:17.488	15.61	-0.0554747	310.115	38.4615
12:43:17.498	15.62	-0.211495	310.115	38.4615
12:43:17.508	15.63	-0.302009	310.115	38.4615
12:43:17.518	15.64	-0.388572	310.115	38.4615
12:43:17.528	15.65	-0.422572	310.115	38.4615
12:43:17.538	15.66	-0.383415	310.115	38.4615
12:43:17.548	15.67	-0.287432	310.116	38.4615
12:43:17.558	15.68	-0.207177	310.116	38.4615
12:43:17.568	15.69	-0.0821459	310.116	38.4615
12:43:17.578	15.7	0.0329725	310.116	38.4615
12:43:17.588	15.71	0.0669483	310.116	38.4615
12:43:17.598	15.72	0.0543607	310.115	38.4615
12:43:17.608	15.73	-0.000921935	310.115	38.4615
12:43:17.618	15.74	-0.0958342	310.115	38.4615
12:43:17.628	15.75	-0.114498	310.115	38.4615
12:43:17.638	15.76	-0.0500798	310.114	38.4615
12:43:17.648	15.77	-0.0168268	310.114	38.4615
12:43:17.658	15.78	-0.00518922	310.114	38.4615
12:43:17.668	15.79	0.00261339	310.113	38.4615
12:43:17.678	15.8	-0.0450955	310.113	38.4615
12:43:17.688	15.81	-0.12048	310.112	38.4615
12:43:17.698	15.82	-0.171774	310.112	38.4615
12:43:17.708	15.83	-0.196068	310.111	38.4615
12:43:17.718	15.84	-0.172114	310.11	38.4615
12:43:17.728	15.85	-0.151213	310.109	38.4615
12:43:17.738	15.86	-0.134066	310.109	38.4615
12:43:17.748	15.87	-0.170192	310.108	38.4615
12:43:17.758	15.88	-0.187243	310.107	38.4615
12:43:17.768	15.89	-0.128301	310.106	38.4615
12:43:17.778	15.9	-0.0875382	310.105	38.4615
12:43:17.788	15.91	-0.0560548	310.104	38.4615
12:43:17.798	15.92	-0.0371677	310.102	38.4615
12:43:17.808	15.93	-0.0330752	310.101	38.4615
12:43:17.818	15.94	-0.0318947	310.1	38.4615
12:43:17.828	15.95	-0.0836819	310.099	38.4615
12:43:17.838	15.96	-0.0732709	310.097	38.4615
12:43:17.848	15.97	0.0424948	310.096	38.4615
12:43:17.858	15.98	0.173633	310.094	38.4615
12:43:17.868	15.99	0.269602	310.093	38.4615
12:43:17.878	16	0.204046	310.091	38.4615
12:43:17.888	16.01	0.0699425	310.09	38.4615
12:43:17.898	16.02	-0.019836	310.088	38.4615
12:43:17.908	16.03	-0.0663059	310.087	38.4615
12:43:17.918	16.04	-0.0530348	310.085	38.4615
12:43:17.928	16.05	-0.0256263	310.083	38.4615
12:43:17.937	16.06	0.0132432	310.081	38.4615
12:43:17.948	16.07	0.0661973	310.08	38.4615
12:43:17.957	16.08	0.088041	310.078	38.4615
12:43:17.968	16.09	0.113864	310.076	38.4615
12:43:17.978	16.1	0.123191	310.074	38.4615
12:43:17.988	16.11	0.0200591	310.072	38.4615
12:43:17.998	16.12	-0.0676463	310.07	38.4615
12:43:18.007	16.13	-0.0809753	310.068	38.4615
12:43:18.018	16.14	-0.0864284	310.066	38.4615
12:43:18.027	16.15	-0.0205475	310.064	38.4615
12:43:18.038	16.16	0.0161583	310.062	38.4615
12:43:18.048	16.17	-0.00741267	310.06	38.4615
12:43:18.058	16.18	-0.0386739	310.058	38.4615
12:43:18.068	16.19	-0.13231	310.056	38.4615
12:43:18.078	16.2	-0.150083	310.054	38.4615
12:43:18.088	16.21	-0.151981	310.052	38.4615
12:43:18.097	16.22	-0.20153	310.05	38.4615
12:43:18.108	16.23	-0.210297	310.048	38.4615
12:43:18.117	16.24	-0.224458	310.046	38.4615
12:43:18.128	16.25	-0.144881	310.044	38.4615
12:43:18.138	16.26	-0.0446983	310.041	38.4615
12:43:18.148	16.27	0.0370082	310.039	38.4615
12:43:18.158	16.28	0.0987363	310.037	38.4615
12:43:18.168	16.29	0.0810387	310.035	38.4615
12:43:18.178	16.3	0.016181	310.033	38.4615
12:43:18.187	16.31	-0.110709	310.031	38.4615
12:43:18.198	16.32	-0.279338	310.029	38.4615
12:43:18.207	16.33	-0.274649	310.027	38.4615
12:43:18.218	16.34	-0.0279466	310.025	38.4615
12:43:18.228	16.35	-0.00565236	310.023	38.4615
12:43:18.238	16.36	-0.110484	310.021	38.4615
12:43:18.248	16.37	-0.0465437	310.019	38.4615
12:43:18.257	16.38	-0.0446465	310.017	38.4615
12:43:18.268	16.39	0.00307145	310.015	38.4615
12:43:18.278	16.4	0.0963302	310.013	38.4615
12:43:18.288	16.41	0.0843356	310.011	38.4615
12:43:18.298	16.42	0.00625965	310.009	38.4615
12:43:18.308	16.43	-0.126207	310.007	38.4615
12:43:18.318	16.44	-0.17942	310.005	38.4615
12:43:18.328	16.45	-0.151534	310.003	38.4615
12:43:18.338	16.46	-0.0703103	310.001	38.4615
12:43:18.348	16.47	0.0181437	310	38.4615
12:43:18.358	16.48	0.0188405	309.998	38.4615
12:43:18.368	16.49	-0.121471	309.996	38.4615
12:43:18.378	16.5	-0.272701	309.994	38.4615
12:43:18.388	16.51	-0.379611	309.993	38.4615
12:43:18.398	16.52	-0.381121	309.991	38.4615
12:43:18.408	16.53	-0.282682	309.989	38.4615
12:43:18.418	16.54	-0.184631	309.988	38.4615
12:43:18.428	16.55	-0.0231942	309.986	38.4615
12:43:18.438	16.56	0.12891	309.984	38.4615
12:43:18.448	16.57	0.256359	309.983	38.4615
12:43:18.458	16.58	0.214148	309.981	38.4615
12:43:18.468	16.59	-0.0407856	309.98	38.4615
12:43:18.478	16.6	-0.196704	309.978	38.4615
12:43:18.488	16.61	-0.261682	309.977	38.4615
12:43:18.498	16.62	-0.329631	309.976	38.4615
12:43:18.508	16.63	-0.381252	309.974	38.4615
12:43:18.518	16.64	-0.400308	309.973	38.4615
12:43:18.528	16.65	-0.343156	309.972	38.4615
12:43:18.538	16.66	-0.261482	309.97	38.4615
12:43:18.548	16.67	-0.161711	309.969	38.4615
12:43:18.558	16.68	-0.0714976	309.968	38.4615
12:43:18.568	16.69	-0.0201534	309.967	38.4615
12:43:18.578	16.7	0.0497463	309.965	38.4615
12:43:18.588	16.71	0.106745	309.964	38.4615
12:43:18.598	16.72	0.0904367	309.963	38.4615
12:43:18.608	16.73	-0.0126137	309.962	38.4615
12:43:18.618	16.74	-0.0495437	309.961	38.4615
12:43:18.628	16.75	-0.0775108	309.96	38.4615
12:43:18.638	16.76	-0.114505	309.959	38.4615
12:43:18.648	16.77	-0.147769	309.958	38.4615
12:43:18.658	16.78	-0.177067	309.957	38.4615
12:43:18.668	16.79	-0.0805934	309.956	38.4615
12:43:18.678	16.8	0.040324	309.955	38.4615
12:43:18.688	16.81	0.0351858	309.954	38.4615
12:43:18.698	16.82	0.0598064	309.953	38.4615
12:43:18.708	16.83	0.135436	309.953	38.4615
12:43:18.718	16.84	0.223523	309.952	38.4615
12:43:18.728	16.85	0.209152	309.951	38.4615
12:43:18.738	16.86	0.122787	309.95	38.4615
12:43:18.748	16.87	0.0588965	309.949	38.4615
12:43:18.758	16.88	0.0540017	309.948	38.4615
12:43:18.768	16.89	0.0424133	309.948	38.4615
12:43:18.778	16.9	0.00376407	309.947	38.4615
12:43:18.788	16.91	0.0331311	309.946	38.4615
12:43:18.798	16.92	0.048239	309.945	38.4615
12:43:18.808	16.93	0.0350474	309.944	38.4615
12:43:18.818	16.94	0.0875955	309.944	38.4615
12:43:18.828	16.95	0.132109	309.943	38.4615
12:43:18.838	16.96	0.16087	309.942	38.4615
12:43:18.848	16.97	0.212904	309.941	38.4615
12:43:18.858	16.98	0.258841	309.94	38.4615
12:43:18.868	16.99	0.268023	309.939	38.4615
12:43:18.878	17	0.225793	309.938	38.4615
12:43:18.888	17.01	0.18758	309.938	38.4615
12:43:18.898	17.02	0.196098	309.937	38.4615
12:43:18.908	17.03	0.219538	309.936	38.4615
12:43:18.918	17.04	0.270777	309.935	38.4615
12:43:18.928	17.05	0.318645	309.934	162.162
12:43:18.938	17.06	0.302402	309.933	162.162
12:43:18.948	17.07	0.216141	309.932	162.162
12:43:18.958	17.08	0.163204	309.931	162.162
12:43:18.968	17.09	0.0879916	309.93	162.162
12:43:18.978	17.1	-0.00498191	309.929	162.162
12:43:18.988	17.11	-0.094612	309.928	162.162
12:43:18.998	17.12	-0.247082	309.927	162.162
12:43:19.008	17.13	-0.375858	309.925	162.162
12:43:19.018	17.14	-0.407942	309.924	162.162
12:43:19.028	17.15	-0.430117	309.923	162.162
12:43:19.038	17.16	-0.34436	309.922	162.162
12:43:19.048	17.17	-0.268021	309.921	162.162
12:43:19.058	17.18	-0.221494	309.919	162.162
12:43:19.068	17.19	-0.148921	309.918	162.162
12:43:19.078	17.2	-0.075927	309.917	162.162
12:43:19.088	17.21	-0.0774222	309.915	162.162
12:43:19.098	17.22	-0.116266	309.914	162.162
12:43:19.108	17.23	-0.0950106	309.913	162.162
12:43:19.118	17.24	0.0654827	309.911	162.162
12:43:19.128	17.25	0.122285	309.91	162.162
12:43:19.138	17.26	0.266612	309.908	162.162
12:43:19.148	17.27	0.253651	309.907	162.162
12:43:19.158	17.28	0.161629	309.905	162.162
12:43:19.168	17.29	0.133801	309.903	162.162
12:43:19.178	17.3	0.0839529	309.902	162.162
12:43:19.188	17.31	0.00555287	309.9	162.162
12:43:19.198	17.32	-0.088704	309.898	162.162
12:43:19.208	17.33	-0.150926	309.896	162.162
12:43:19.218	17.34	-0.17856	309.895	162.162
12:43:19.228	17.35	-0.210259	309.893	162.162
12:43:19.238	17.36	-0.166998	309.891	162.162
12:43:19.248	17.37	-0.074892	309.889	162.162
12:43:19.258	17.38	0.0107777	309.887	162.162
12:43:19.268	17.39	0.137293	309.885	162.162
12:43:19.278	17.4	0.252937	309.883	162.162
12:43:19.288	17.41	0.358757	309.88	162.162
12:43:19.298	17.42	0.373317	309.878	375
12:43:19.308	17.43	0.301617	309.876	375
12:43:19.318	17.44	0.269479	309.874	375
12:43:19.328	17.45	0.199446	309.872	375
12:43:19.338	17.46	0.138377	309.869	375
12:43:19.348	17.47	0.0578907	309.867	375
12:43:19.358	17.48	-0.0641487	309.864	375
12:43:19.368	17.49	-0.141185	309.862	375
12:43:19.378	17.5	-0.204849	309.859	375
12:43:19.388	17.51	-0.25355	309.857	375
12:43:19.398	17.52	-0.259922	309.854	375
12:43:19.408	17.53	-0.212248	309.852	375
12:43:19.418	17.54	-0.108366	309.849	375
12:43:19.428	17.55	0.0302705	309.846	375
12:43:19.438	17.56	0.211521	309.844	375
12:43:19.448	17.57	0.372983	309.841	375
12:43:19.458	17.58	0.436456	309.838	153.846
12:43:19.468	17.59	0.379321	309.835	153.846
12:43:19.478	17.6	0.145597	309.832	153.846
12:43:19.488	17.61	-0.0722586	309.829	153.846
12:43:19.498	17.62	-0.194161	309.826	153.846
12:43:19.508	17.63	-0.318033	309.823	153.846
12:43:19.518	17.64	-0.36589	309.82	153.846
12:43:19.528	17.65	-0.304232	309.817	153.846
12:43:19.538	17.66	-0.196652	309.814	153.846
12:43:19.548	17.67	-0.104505	309.811	153.846
12:43:19.558	17.68	-0.0239346	309.808	153.846
12:43:19.568	17.69	0.0217295	309.804	153.846
12:43:19.578	17.7	0.0628365	309.801	153.846
12:43:19.588	17.71	0.0982134	309.798	153.846
12:43:19.598	17.72	0.150103	309.795	153.846
12:43:19.608	17.73	0.205678	309.791	153.846
12:43:19.618	17.74	0.253339	309.788	153.846
12:43:19.628	17.75	0.229677	309.784	153.846
12:43:19.638	17.76	0.166158	309.781	153.846
12:43:19.648	17.77	0.14576	309.778	153.846
12:43:19.658	17.78	0.153701	309.774	153.846
12:43:19.668	17.79	0.190036	309.771	153.846
12:43:19.678	17.8	0.202292	309.767	153.846
12:43:19.688	17.81	0.19414	309.764	153.846
12:43:19.698	17.82	0.212112	309.76	153.846
12:43:19.708	17.83	0.26451	309.757	153.846
12:43:19.718	17.84	0.256327	309.753	153.846
12:43:19.728	17.85	0.0654391	309.749	153.846
12:43:19.738	17.86	-0.22921	309.746	153.846
12:43:19.748	17.87	-0.485871	309.742	153.846
12:43:19.758	17.88	-0.657542	309.739	153.846
12:43:19.768	17.89	-0.721431	309.735	153.846
12:43:19.778	17.9	-0.685843	309.731	153.846
12:43:19.788	17.91	-0.531909	309.728	153.846
12:43:19.798	17.92	-0.318891	309.724	153.846
12:43:19.808	17.93	-0.13932	309.72	153.846
12:43:19.818	17.94	-0.0116164	309.716	153.846
12:43:19.828	17.95	0.123764	309.713	153.846
12:43:19.838	17.96	0.282986	309.709	153.846
12:43:19.848	17.97	0.389417	309.705	52.6316
12:43:19.858	17.98	0.36669	309.701	52.6316
12:43:19.868	17.99	0.236135	309.698	52.6316
12:43:19.878	18	0.133908	309.694	52.6316
12:43:19.888	18.01	0.115107	309.69	52.6316
12:43:19.898	18.02	0.11935	309.686	52.6316
12:43:19.908	18.03	0.126035	309.682	52.6316
12:43:19.918	18.04	0.116686	309.678	52.6316
12:43:19.928	18.05	0.0703415	309.674	52.6316
12:43:19.938	18.06	0.0412738	309.671	52.6316
12:43:19.948	18.07	0.0420177	309.667	52.6316
12:43:19.958	18.08	0.050327	309.663	52.6316
12:43:19.968	18.09	0.054864	309.659	52.6316
12:43:19.978	18.1	0.0479745	309.655	52.6316
12:43:19.988	18.11	0.0113838	309.651	52.6316
12:43:19.998	18.12	-0.140838	309.647	52.6316
12:43:20.008	18.13	-0.102969	309.643	52.6316
12:43:20.018	18.14	0.0229429	309.639	52.6316
12:43:20.028	18.15	-0.0968063	309.634	52.6316
12:43:20.038	18.16	-0.058093	309.63	52.6316
12:43:20.048	18.17	0.0263954	309.626	52.6316
12:43:20.058	18.18	-0.0305917	309.622	52.6316
12:43:20.068	18.19	0.0449504	309.618	52.6316
12:43:20.078	18.2	0.0216508	309.614	52.6316
12:43:20.088	18.21	-0.0785016	309.61	52.6316
12:43:20.098	18.22	-0.00758138	309.605	52.6316
12:43:20.108	18.23	0.00661177	309.601	52.6316
12:43:20.118	18.24	-0.109133	309.597	52.6316
12:43:20.128	18.25	-0.11837	309.592	52.6316
12:43:20.138	18.26	0.00307548	309.588	52.6316
12:43:20.148	18.27	0.0544006	309.584	52.6316
12:43:20.158	18.28	0.0655503	309.58	52.6316
12:43:20.168	18.29	0.162449	309.575	52.6316
12:43:20.178	18.3	0.237722	309.571	52.6316
12:43:20.188	18.31	0.229489	309.566	52.6316
12:43:20.198	18.32	0.141843	309.562	52.6316
12:43:20.208	18.33	-0.0663735	309.558	52.6316
12:43:20.218	18.34	-0.244683	309.553	52.6316
12:43:20.228	18.35	-0.367103	309.549	52.6316
12:43:20.238	18.36	-0.440615	309.545	52.6316
12:43:20.248	18.37	-0.456374	309.54	52.6316
12:43:20.258	18.38	-0.415848	309.536	52.6316
12:43:20.268	18.39	-0.29592	309.531	52.6316
12:43:20.278	18.4	-0.193243	309.527	52.6316
12:43:20.288	18.41	-0.131012	309.522	52.6316
12:43:20.298	18.42	-0.120715	309.518	52.6316
12:43:20.308	18.43	-0.243939	309.513	52.6316
12:43:20.318	18.44	-0.323099	309.509	52.6316
12:43:20.328	18.45	-0.344294	309.504	52.6316
12:43:20.338	18.46	-0.25914	309.5	52.6316
12:43:20.348	18.47	0.0254354	309.495	52.6316
12:43:20.358	18.48	0.094164	309.491	52.6316
12:43:20.368	18.49	0.0608466	309.486	52.6316
12:43:20.378	18.5	-0.0433382	309.482	52.6316
12:43:20.388	18.51	-0.255799	309.477	52.6316
12:43:20.398	18.52	-0.368273	309.473	52.6316
12:43:20.408	18.53	-0.436274	309.468	52.6316
12:43:20.418	18.54	-0.465981	309.464	52.6316
12:43:20.428	18.55	-0.525749	309.459	52.6316
12:43:20.438	18.56	-0.511029	309.454	52.6316
12:43:20.448	18.57	-0.373574	309.45	52.6316
12:43:20.458	18.58	-0.21084	309.445	52.6316
12:43:20.468	18.59	-0.0628209	309.441	52.6316
12:43:20.478	18.6	0.0940874	309.436	52.6316
12:43:20.488	18.61	0.139009	309.432	52.6316
12:43:20.498	18.62	0.0342604	309.427	52.6316
12:43:20.508	18.63	-0.0715424	309.423	52.6316
12:43:20.518	18.64	-0.10222	309.418	52.6316
12:43:20.528	18.65	-0.0951409	309.414	52.6316
12:43:20.538	18.66	-0.0569458	309.409	52.6316
12:43:20.548	18.67	-0.0562461	309.404	52.6316
12:43:20.558	18.68	-0.0512586	309.4	52.6316
12:43:20.568	18.69	0.0240463	309.395	52.6316
12:43:20.578	18.7	0.0583406	309.391	52.6316
12:43:20.588	18.71	0.0519358	309.387	52.6316
12:43:20.598	18.72	0.0725827	309.382	52.6316
12:43:20.608	18.73	0.0251518	309.378	52.6316
12:43:20.618	18.74	-0.0328067	309.373	52.6316
12:43:20.628	18.75	-0.0874952	309.369	52.6316
12:43:20.638	18.76	-0.119684	309.365	52.6316
12:43:20.648	18.77	-0.0587555	309.36	52.6316
12:43:20.658	18.78	0.0714921	309.356	52.6316
12:43:20.668	18.79	0.230825	309.352	52.6316
12:43:20.678	18.8	0.252572	309.347	52.6316
12:43:20.688	18.81	0.196849	309.343	52.6316
12:43:20.698	18.82	0.205732	309.339	52.6316
12:43:20.708	18.83	0.19932	309.335	52.6316
12:43:20.718	18.84	0.161771	309.331	52.6316
12:43:20.728	18.85	0.157899	309.327	52.6316
12:43:20.738	18.86	0.127875	309.323	52.6316
12:43:20.748	18.87	0.0299525	309.319	52.6316
12:43:20.758	18.88	0.0216795	309.315	52.6316
12:43:20.768	18.89	-0.00871329	309.311	52.6316
12:43:20.778	18.9	-0.032544	309.307	52.6316
12:43:20.788	18.91	-0.0453888	309.303	52.6316
12:43:20.798	18.92	-0.147019	309.299	52.6316
12:43:20.808	18.93	-0.239622	309.296	52.6316
12:43:20.818	18.94	-0.279078	309.292	52.6316
12:43:20.828	18.95	-0.277945	309.288	52.6316
12:43:20.838	18.96	-0.231931	309.285	52.6316
12:43:20.848	18.97	-0.154991	309.281	52.6316
12:43:20.858	18.98	-0.119586	309.278	52.6316
12:43:20.868	18.99	-0.136217	309.274	52.6316
12:43:20.878	19	-0.116573	309.271	52.6316
12:43:20.888	19.01	-0.117895	309.267	52.6316
12:43:20.898	19.02	-0.213984	309.264	52.6316
12:43:20.908	19.03	-0.362591	309.261	52.6316
12:43:20.918	19.04	-0.415211	309.257	52.6316
12:43:20.928	19.05	-0.372951	309.254	52.6316
12:43:20.938	19.06	-0.25933	309.251	52.6316
12:43:20.948	19.07	-0.115602	309.248	52.6316
12:43:20.958	19.08	0.0489	309.245	52.6316
12:43:20.968	19.09	0.164033	309.242	52.6316
12:43:20.978	19.1	0.251719	309.239	52.6316
12:43:20.988	19.11	0.330512	309.236	461.538
12:43:20.998	19.12	0.302227	309.233	461.538
12:43:21.008	19.13	0.185009	309.231	461.538
12:43:21.018	19.14	0.00853137	309.228	461.538
12:43:21.028	19.15	-0.169559	309.225	461.538
12:43:21.038	19.16	-0.262524	309.222	461.538
12:43:21.048	19.17	-0.285775	309.22	461.538
12:43:21.058	19.18	-0.214997	309.217	461.538
12:43:21.068	19.19	-0.0758846	309.215	461.538
12:43:21.078	19.2	0.0743579	309.212	461.538
12:43:21.088	19.21	0.162829	309.21	461.538
12:43:21.098	19.22	0.232249	309.208	461.538
12:43:21.108	19.23	0.30276	309.205	461.538
12:43:21.118	19.24	0.305838	309.203	206.897
12:43:21.128	19.25	0.198891	309.201	206.897
12:43:21.138	19.26	0.0620737	309.199	206.897
12:43:21.148	19.27	-0.0553986	309.197	206.897
12:43:21.158	19.28	-0.120639	309.195	206.897
12:43:21.168	19.29	-0.130865	309.193	206.897
12:43:21.178	19.3	-0.0688811	309.191	206.897
12:43:21.188	19.31	0.00701739	309.189	206.897
12:43:21.198	19.32	0.0245605	309.187	206.897
12:43:21.208	19.33	-0.096549	309.185	206.897
12:43:21.218	19.34	-0.416312	309.183	206.897
12:43:21.228	19.35	-0.559207	309.181	206.897
12:43:21.238	19.36	-0.534736	309.18	206.897
12:43:21.248	19.37	-0.46525	309.178	206.897
12:43:21.258	19.38	-0.379175	309.176	206.897
12:43:21.268	19.39	-0.329148	309.175	206.897
12:43:21.278	19.4	-0.260703	309.173	206.897
12:43:21.288	19.41	-0.209036	309.172	206.897
12:43:21.298	19.42	-0.14769	309.17	206.897
12:43:21.308	19.43	-0.12065	309.169	206.897
12:43:21.318	19.44	-0.196198	309.168	206.897
12:43:21.328	19.45	-0.260739	309.166	206.897
12:43:21.338	19.46	-0.246609	309.165	206.897
12:43:21.348	19.47	-0.196505	309.163	206.897
12:43:21.358	19.48	-0.130789	309.162	206.897
12:43:21.368	19.49	0.0910245	309.161	206.897
12:43:21.378	19.5	0.340046	309.16	206.897
12:43:21.388	19.51	0.407172	309.158	206.897
12:43:21.398	19.52	0.424652	309.157	206.897
12:43:21.408	19.53	0.461159	309.156	162.162
12:43:21.418	19.54	0.390336	309.155	162.162
12:43:21.428	19.55	0.324251	309.154	162.162
12:43:21.438	19.56	0.309939	309.152	162.162
12:43:21.448	19.57	0.300987	309.151	162.162
12:43:21.458	19.58	0.28303	309.15	162.162
12:43:21.468	19.59	0.220058	309.149	162.162
12:43:21.478	19.6	0.141564	309.148	162.162
12:43:21.488	19.61	0.124093	309.146	162.162
12:43:21.498	19.62	0.112191	309.145	162.162
12:43:21.508	19.63	0.111758	309.144	162.162
12:43:21.518	19.64	0.114143	309.143	162.162
12:43:21.528	19.65	0.0887628	309.142	162.162
12:43:21.538	19.66	0.0344783	309.14	162.162
12:43:21.548	19.67	0.0433643	309.139	162.162
12:43:21.558	19.68	0.136005	309.138	162.162
12:43:21.568	19.69	0.231314	309.137	162.162
12:43:21.578	19.7	0.254924	309.135	162.162
12:43:21.588	19.71	0.216194	309.134	162.162
12:43:21.598	19.72	0.194693	309.133	162.162
12:43:21.608	19.73	0.154508	309.131	162.162
12:43:21.618	19.74	0.0902001	309.13	162.162
12:43:21.628	19.75	0.0628258	309.129	162.162
12:43:21.638	19.76	0.0486648	309.127	162.162
12:43:21.648	19.77	0.000129966	309.126	162.162
12:43:21.658	19.78	-0.0415395	309.125	162.162
12:43:21.668	19.79	-0.112425	309.123	162.162
12:43:21.678	19.8	-0.185964	309.122	162.162
12:43:21.688	19.81	-0.180452	309.121	162.162
12:43:21.698	19.82	-0.17915	309.119	162.162
12:43:21.708	19.83	-0.140099	309.118	162.162
12:43:21.718	19.84	-0.0342721	309.116	162.162
12:43:21.728	19.85	0.0546634	309.115	162.162
12:43:21.738	19.86	0.156632	309.113	162.162
12:43:21.748	19.87	0.276458	309.112	162.162
12:43:21.758	19.88	0.379342	309.11	162.162
12:43:21.768	19.89	0.441202	309.109	162.162
12:43:21.778	19.9	0.447995	309.107	72.2892
12:43:21.788	19.91	0.343362	309.106	72.2892
12:43:21.798	19.92	0.217837	309.104	72.2892
12:43:21.808	19.93	0.142404	309.103	72.2892
12:43:21.818	19.94	0.039334	309.101	72.2892
12:43:21.828	19.95	-0.0491183	309.1	72.2892
12:43:21.838	19.96	-0.0970419	309.098	72.2892
12:43:21.848	19.97	-0.0833059	309.097	72.2892
12:43:21.858	19.98	-0.0496702	309.095	72.2892
12:43:21.868	19.99	-0.0418458	309.093	72.2892
12:43:21.878	20	-0.0802244	309.092	72.2892
12:43:21.888	20.01	-0.0996521	309.09	72.2892
12:43:21.898	20.02	-0.0909789	309.089	72.2892
12:43:21.908	20.03	-0.095802	309.087	72.2892
12:43:21.918	20.04	-0.11842	309.085	72.2892
12:43:21.928	20.05	-0.0916961	309.084	72.2892
12:43:21.938	20.06	-0.0434585	309.082	72.2892
12:43:21.948	20.07	0.0226464	309.08	72.2892
12:43:21.958	20.08	0.0888298	309.079	72.2892
12:43:21.968	20.09	0.107007	309.077	72.2892
12:43:21.978	20.1	0.0833751	309.075	72.2892
12:43:21.988	20.11	0.0646201	309.074	72.2892
12:43:21.998	20.12	0.0464967	309.072	72.2892
12:43:22.008	20.13	0.010275	309.07	72.2892
12:43:22.018	20.14	-0.0462102	309.068	72.2892
12:43:22.028	20.15	-0.0834656	309.066	72.2892
12:43:22.038	20.16	-0.0754384	309.065	72.2892
12:43:22.048	20.17	-0.0630503	309.063	72.2892
12:43:22.058	20.18	-0.0645233	309.061	72.2892
12:43:22.068	20.19	-0.04286	309.059	72.2892
12:43:22.078	20.2	0.0335512	309.057	72.2892
12:43:22.088	20.21	0.0927086	309.055	72.2892
12:43:22.098	20.22	0.101996	309.053	72.2892
12:43:22.108	20.23	0.0523069	309.051	72.2892
12:43:22.118	20.24	-0.0820383	309.049	72.2892
12:43:22.128	20.25	-0.145296	309.047	72.2892
12:43:22.138	20.26	-0.196653	309.045	72.2892
12:43:22.148	20.27	-0.247256	309.043	72.2892
12:43:22.158	20.28	-0.20409	309.041	72.2892
12:43:22.168	20.29	-0.124469	309.039	72.2892
12:43:22.178	20.3	-0.0313001	309.037	72.2892
12:43:22.188	20.31	0.0601456	309.035	72.2892
12:43:22.198	20.32	0.132697	309.033	72.2892
12:43:22.208	20.33	0.165628	309.031	72.2892
12:43:22.218	20.34	0.115302	309.029	72.2892
12:43:22.228	20.35	-0.0749143	309.027	72.2892
12:43:22.238	20.36	-0.167042	309.024	72.2892
12:43:22.248	20.37	-0.163349	309.022	72.2892
12:43:22.258	20.38	-0.129692	309.02	72.2892
12:43:22.268	20.39	-0.0587256	309.018	72.2892
12:43:22.278	20.4	0.0278068	309.016	72.2892
12:43:22.288	20.41	0.127735	309.013	72.2892
12:43:22.298	20.42	0.176541	309.011	72.2892
12:43:22.308	20.43	0.16136	309.009	72.2892
12:43:22.318	20.44	0.106397	309.007	72.2892
12:43:22.328	20.45	0.045148	309.004	72.2892
12:43:22.338	20.46	-0.0263562	309.002	72.2892
12:43:22.348	20.47	-0.10728	309	72.2892
12:43:22.358	20.48	-0.111729	308.998	72.2892
12:43:22.368	20.49	-0.0817342	308.995	72.2892
12:43:22.378	20.5	-0.0680039	308.993	72.2892
12:43:22.388	20.51	-0.0848897	308.991	72.2892
12:43:22.398	20.52	-0.0830058	308.989	72.2892
12:43:22.408	20.53	-0.102234	308.987	72.2892
12:43:22.418	20.54	-0.0620561	308.984	72.2892
12:43:22.428	20.55	-0.00685011	308.982	72.2892
12:43:22.438	20.56	-0.0108766	308.98	72.2892
12:43:22.448	20.57	0.0320404	308.978	72.2892
12:43:22.458	20.58	0.0947074	308.975	72.2892
12:43:22.468	20.59	0.134225	308.973	72.2892
12:43:22.478	20.6	0.192546	308.971	72.2892
12:43:22.488	20.61	0.214809	308.969	72.2892
12:43:22.498	20.62	0.193278	308.966	72.2892
12:43:22.508	20.63	0.086573	308.964	72.2892
12:43:22.518	20.64	-0.040579	308.962	72.2892
12:43:22.528	20.65	-0.0993954	308.96	72.2892
12:43:22.538	20.66	-0.117037	308.958	72.2892
12:43:22.548	20.67	-0.0768164	308.955	72.2892
12:43:22.558	20.68	-0.0112214	308.953	72.2892
12:43:22.568	20.69	0.0650885	308.951	72.2892
12:43:22.578	20.7	0.215438	308.949	72.2892
12:43:22.588	20.71	0.333964	308.947	72.2892
12:43:22.598	20.72	0.41285	308.945	72.2892
12:43:22.608	20.73	0.465063	308.942	111.111
12:43:22.618	20.74	0.448636	308.94	111.111
12:43:22.628	20.75	0.440039	308.938	111.111
12:43:22.638	20.76	0.338678	308.936	111.111
12:43:22.648	20.77	0.169992	308.934	111.111
12:43:22.658	20.78	0.122265	308.932	111.111
12:43:22.668	20.79	0.0182743	308.93	111.111
12:43:22.678	20.8	0.0387918	308.928	111.111
12:43:22.688	20.81	0.115	308.926	111.111
12:43:22.698	20.82	0.0532737	308.924	111.111
12:43:22.708	20.83	-0.0865019	308.922	111.111
12:43:22.718	20.84	-0.262555	308.92	111.111
12:43:22.728	20.85	-0.493673	308.918	111.111
12:43:22.738	20.86	-0.598425	308.916	111.111
12:43:22.748	20.87	-0.554002	308.914	111.111
12:43:22.758	20.88	-0.417923	308.912	111.111
12:43:22.768	20.89	-0.269185	308.91	111.111
12:43:22.778	20.9	-0.21591	308.908	111.111
12:43:22.788	20.91	-0.166738	308.906	111.111
12:43:22.798	20.92	-0.0287145	308.904	111.111
12:43:22.808	20.93	0.0387233	308.902	111.111
12:43:22.818	20.94	0.0642807	308.9	111.111
12:43:22.828	20.95	0.10692	308.898	111.111
12:43:22.838	20.96	0.0554802	308.896	111.111
12:43:22.848	20.97	0.0517431	308.894	111.111
12:43:22.858	20.98	0.113553	308.893	111.111
12:43:22.868	20.99	0.187283	308.891	111.111
12:43:22.878	21	0.267291	308.889	111.111
12:43:22.888	21.01	0.263556	308.887	111.111
12:43:22.898	21.02	0.215852	308.885	111.111
12:43:22.908	21.03	0.173029	308.883	111.111
12:43:22.918	21.04	0.153173	308.881	111.111
12:43:22.928	21.05	0.117728	308.879	111.111
12:43:22.938	21.06	0.0279046	308.877	111.111
12:43:22.948	21.07	-0.136484	308.875	111.111
12:43:22.958	21.08	-0.294077	308.873	111.111
12:43:22.968	21.09	-0.338984	308.871	111.111
12:43:22.978	21.1	-0.27866	308.869	111.111
12:43:22.988	21.11	-0.184987	308.867	111.111
12:43:22.998	21.12	-0.1399	308.865	111.111
12:43:23.008	21.13	-0.110246	308.863	111.111
12:43:23.018	21.14	-0.080295	308.862	111.111
12:43:23.028	21.15	-0.0189811	308.86	111.111
12:43:23.038	21.16	0.0293292	308.858	111.111
12:43:23.048	21.17	0.0437859	308.856	111.111
12:43:23.058	21.18	0.0345008	308.854	111.111
12:43:23.068	21.19	-0.0226375	308.852	111.111
12:43:23.078	21.2	-0.0864832	308.85	111.111
12:43:23.088	21.21	-0.128889	308.848	111.111
12:43:23.098	21.22	-0.0902699	308.846	111.111
12:43:23.108	21.23	0.00425971	308.844	111.111
12:43:23.118	21.24	0.132471	308.842	111.111
12:43:23.128	21.25	0.289719	308.84	111.111
12:43:23.138	21.26	0.378707	308.838	111.111
12:43:23.148	21.27	0.432108	308.837	90.9091
12:43:23.158	21.28	0.426641	308.835	90.9091
12:43:23.168	21.29	0.285025	308.833	90.9091
12:43:23.178	21.3	0.19398	308.831	90.9091
12:43:23.188	21.31	0.168157	308.829	90.9091
12:43:23.198	21.32	0.160928	308.827	90.9091
12:43:23.208	21.33	0.19295	308.825	90.9091
12:43:23.218	21.34	0.22533	308.824	90.9091
12:43:23.228	21.35	0.166265	308.822	90.9091
12:43:23.238	21.36	0.0194784	308.82	90.9091
12:43:23.248	21.37	-0.0999168	308.818	90.9091
12:43:23.258	21.38	-0.167364	308.816	90.9091
12:43:23.268	21.39	-0.198736	308.815	90.9091
12:43:23.278	21.4	-0.215916	308.813	90.9091
12:43:23.288	21.41	-0.206771	308.811	90.9091
12:43:23.298	21.42	-0.166065	308.809	90.9091
12:43:23.308	21.43	-0.0956758	308.808	90.9091
12:43:23.318	21.44	0.0013171	308.806	90.9091
12:43:23.328	21.45	0.103395	308.804	90.9091
12:43:23.338	21.46	0.170104	308.803	90.9091
12:43:23.348	21.47	0.196553	308.801	90.9091
12:43:23.358	21.48	0.141586	308.799	90.9091
12:43:23.368	21.49	0.0143663	308.798	90.9091
12:43:23.378	21.5	-0.0311859	308.796	90.9091
12:43:23.388	21.51	-0.0376044	308.795	90.9091
12:43:23.398	21.52	-0.0325584	308.793	90.9091
12:43:23.408	21.53	0.0154527	308.792	90.9091
12:43:23.418	21.54	0.072504	308.79	90.9091
12:43:23.428	21.55	0.127509	308.789	90.9091
12:43:23.438	21.56	0.134496	308.787	90.9091
12:43:23.448	21.57	0.135008	308.786	90.9091
12:43:23.458	21.58	0.137567	308.784	90.9091
12:43:23.468	21.59	0.0684485	308.783	90.9091
12:43:23.478	21.6	0.0409391	308.782	90.9091
12:43:23.488	21.61	-0.0187224	308.78	90.9091
12:43:23.498	21.62	-0.0631704	308.779	90.9091
12:43:23.508	21.63	-0.0178873	308.777	90.9091
12:43:23.518	21.64	0.0239806	308.776	90.9091
12:43:23.528	21.65	0.103072	308.775	90.9091
12:43:23.538	21.66	0.135122	308.773	90.9091
12:43:23.548	21.67	0.0692066	308.772	90.9091
12:43:23.558	21.68	-0.0163603	308.771	90.9091
12:43:23.568	21.69	-0.0991754	308.769	90.9091
12:43:23.578	21.7	-0.171117	308.768	90.9091
12:43:23.588	21.71	-0.205778	308.767	90.9091
12:43:23.598	21.72	-0.167874	308.765	90.9091
12:43:23.608	21.73	-0.0926737	308.764	90.9091
12:43:23.618	21.74	-0.0735775	308.763	90.9091
12:43:23.628	21.75	-0.0777956	308.761	90.9091
12:43:23.638	21.76	-0.0821825	308.76	90.9091
12:43:23.648	21.77	-0.113615	308.759	90.9091
12:43:23.658	21.78	-0.116574	308.757	90.9091
12:43:23.668	21.79	-0.0843624	308.756	90.9091
12:43:23.678	21.8	-0.0425444	308.754	90.9091
12:43:23.688	21.81	-0.0721874	308.753	90.9091
12:43:23.698	21.82	-0.137566	308.751	90.9091
12:43:23.708	21.83	-0.166552	308.75	90.9091
12:43:23.718	21.84	-0.188512	308.748	90.9091
12:43:23.728	21.85	-0.18601	308.747	90.9091
12:43:23.738	21.86	-0.17713	308.745	90.9091
12:43:23.748	21.87	-0.176557	308.744	90.9091
12:43:23.758	21.88	-0.131435	308.742	90.9091
12:43:23.768	21.89	-0.0144405	308.74	90.9091
12:43:23.778	21.9	0.0965255	308.738	90.9091
12:43:23.788	21.91	0.190494	308.737	90.9091
12:43:23.798	21.92	0.268132	308.735	90.9091
12:43:23.808	21.93	0.306272	308.733	88.2353
12:43:23.818	21.94	0.252143	308.731	88.2353
12:43:23.828	21.95	0.193526	308.729	88.2353
12:43:23.838	21.96	0.0986226	308.727	88.2353
12:43:23.848	21.97	0.0373026	308.725	88.2353
12:43:23.858	21.98	0.0561474	308.723	88.2353
12:43:23.868	21.99	0.0838297	308.721	88.2353
12:43:23.878	22	0.0719404	308.719	88.2353
12:43:23.888	22.01	0.0513446	308.717	88.2353
12:43:23.898	22.02	-0.00997992	308.715	88.2353
12:43:23.908	22.03	-0.115628	308.712	88.2353
12:43:23.918	22.04	-0.206442	308.71	88.2353
12:43:23.928	22.05	-0.251906	308.708	88.2353
12:43:23.938	22.06	-0.220459	308.705	88.2353
12:43:23.948	22.07	-0.177393	308.703	88.2353
12:43:23.958	22.08	-0.11155	308.701	88.2353
12:43:23.968	22.09	-0.0187096	308.698	88.2353
12:43:23.978	22.1	-0.0275659	308.696	88.2353
12:43:23.988	22.11	-0.0904569	308.693	88.2353
12:43:23.998	22.12	-0.146077	308.69	88.2353
12:43:24.008	22.13	-0.20198	308.688	88.2353
12:43:24.018	22.14	-0.253385	308.685	88.2353
12:43:24.028	22.15	-0.252202	308.683	88.2353
12:43:24.038	22.16	-0.173944	308.68	88.2353
12:43:24.048	22.17	-0.0738184	308.677	88.2353
12:43:24.058	22.18	0.0331545	308.674	88.2353
12:43:24.068	22.19	0.119048	308.672	88.2353
12:43:24.078	22.2	0.0766861	308.669	88.2353
12:43:24.088	22.21	-0.00276508	308.666	88.2353
12:43:24.098	22.22	-0.128179	308.663	88.2353
12:43:24.108	22.23	-0.208434	308.66	88.2353
12:43:24.118	22.24	-0.185295	308.658	88.2353
12:43:24.128	22.25	-0.130005	308.655	88.2353
12:43:24.138	22.26	-0.047816	308.652	88.2353
12:43:24.148	22.27	-0.0159774	308.649	88.2353
12:43:24.158	22.28	0.023915	308.646	88.2353
12:43:24.168	22.29	0.0363855	308.643	88.2353
12:43:24.178	22.3	-0.0797581	308.64	88.2353
12:43:24.188	22.31	-0.177822	308.637	88.2353
12:43:24.198	22.32	-0.253682	308.634	88.2353
12:43:24.208	22.33	-0.302622	308.631	88.2353
12:43:24.218	22.34	-0.281689	308.628	88.2353
12:43:24.228	22.35	-0.18283	308.625	88.2353
12:43:24.238	22.36	-0.0359274	308.622	88.2353
12:43:24.248	22.37	0.0717465	308.619	88.2353
12:43:24.258	22.38	0.131446	308.616	88.2353
12:43:24.268	22.39	0.128151	308.613	88.2353
12:43:24.278	22.4	0.0469493	308.61	88.2353
12:43:24.288	22.41	-0.05199	308.607	88.2353
12:43:24.298	22.42	-0.126043	308.603	88.2353
12:43:24.308	22.43	-0.143138	308.6	88.2353
12:43:24.318	22.44	-0.129781	308.597	88.2353
12:43:24.328	22.45	-0.116813	308.594	88.2353
12:43:24.338	22.46	-0.0832752	308.591	88.2353
12:43:24.348	22.47	-0.0357842	308.588	88.2353
12:43:24.358	22.48	0.0145051	308.584	88.2353
12:43:24.368	22.49	0.0188993	308.581	88.2353
12:43:24.378	22.5	-0.0361339	308.578	88.2353
12:43:24.388	22.51	-0.0693491	308.575	88.2353
12:43:24.398	22.52	-0.0697105	308.572	88.2353
12:43:24.408	22.53	-0.0672443	308.568	88.2353
12:43:24.418	22.54	-0.086173	308.565	88.2353
12:43:24.428	22.55	-0.0388764	308.562	88.2353
12:43:24.438	22.56	0.0722908	308.559	88.2353
12:43:24.448	22.57	0.1807	308.555	88.2353
12:43:24.458	22.58	0.290543	308.552	88.2353
12:43:24.468	22.59	0.330021	308.549	88.2353
12:43:24.478	22.6	0.333767	308.546	88.2353
12:43:24.488	22.61	0.336668	308.542	117.647
12:43:24.498	22.62	0.215998	308.539	117.647
12:43:24.508	22.63	0.095415	308.536	117.647
12:43:24.518	22.64	0.0158921	308.533	117.647
12:43:24.528	22.65	-0.044049	308.53	117.647
12:43:24.538	22.66	-0.0699153	308.526	117.647
12:43:24.548	22.67	-0.0654469	308.523	117.647
12:43:24.558	22.68	-0.0680577	308.52	117.647
12:43:24.568	22.69	-0.0406479	308.517	117.647
12:43:24.578	22.7	-0.0174413	308.514	117.647
12:43:24.588	22.71	0.00772625	308.51	117.647
12:43:24.598	22.72	-0.0248068	308.507	117.647
12:43:24.608	22.73	-0.088072	308.504	117.647
12:43:24.618	22.74	-0.16801	308.501	117.647
12:43:24.628	22.75	-0.24435	308.498	117.647
12:43:24.638	22.76	-0.238879	308.495	117.647
12:43:24.648	22.77	-0.220301	308.492	117.647
12:43:24.658	22.78	-0.157871	308.488	117.647
12:43:24.668	22.79	-0.085657	308.485	117.647
12:43:24.678	22.8	0.00159925	308.482	117.647
12:43:24.688	22.81	0.0694882	308.479	117.647
12:43:24.698	22.82	0.0785949	308.476	117.647
12:43:24.708	22.83	0.0415118	308.473	117.647
12:43:24.718	22.84	-0.0107036	308.47	117.647
12:43:24.728	22.85	-0.0703817	308.467	117.647
12:43:24.738	22.86	-0.121545	308.465	117.647
12:43:24.748	22.87	-0.118223	308.462	117.647
12:43:24.758	22.88	-0.11854	308.459	117.647
12:43:24.768	22.89	-0.0832653	308.456	117.647
12:43:24.778	22.9	-0.050828	308.453	117.647
12:43:24.788	22.91	-0.0193469	308.45	117.647
12:43:24.798	22.92	-0.0848697	308.448	117.647
12:43:24.808	22.93	-0.232326	308.445	117.647
12:43:24.818	22.94	-0.336452	308.442	117.647
12:43:24.828	22.95	-0.386065	308.44	117.647
12:43:24.838	22.96	-0.347966	308.437	117.647
12:43:24.848	22.97	-0.220142	308.434	117.647
12:43:24.858	22.98	-0.133402	308.432	117.647
12:43:24.868	22.99	-0.0420753	308.429	117.647
12:43:24.878	23	-0.0194313	308.427	117.647
12:43:24.888	23.01	0.0149811	308.424	117.647
12:43:24.898	23.02	0.0172296	308.422	117.647
12:43:24.908	23.03	-0.12234	308.42	117.647
12:43:24.918	23.04	-0.295533	308.417	117.647
12:43:24.928	23.05	-0.387601	308.415	117.647
12:43:24.938	23.06	-0.378859	308.413	117.647
12:43:24.948	23.07	-0.303924	308.41	117.647
12:43:24.958	23.08	-0.182751	308.408	117.647
12:43:24.968	23.09	-0.0521844	308.406	117.647
12:43:24.978	23.1	0.0978407	308.404	117.647
12:43:24.988	23.11	0.231292	308.402	117.647
12:43:24.998	23.12	0.282342	308.4	500
12:43:25.008	23.13	0.238522	308.398	500
12:43:25.018	23.14	0.102307	308.396	500
12:43:25.028	23.15	0.0476305	308.394	500
12:43:25.038	23.16	0.0261344	308.392	500
12:43:25.048	23.17	0.0394598	308.39	500
12:43:25.058	23.18	0.123262	308.388	500
12:43:25.068	23.19	0.171861	308.387	500
12:43:25.078	23.2	0.236119	308.385	500
12:43:25.088	23.21	0.335847	308.383	500
12:43:25.098	23.22	0.418872	308.382	500
12:43:25.108	23.23	0.439772	308.38	500
12:43:25.118	23.24	0.463135	308.378	750
12:43:25.128	23.25	0.446552	308.377	750
12:43:25.138	23.26	0.382558	308.375	750
12:43:25.148	23.27	0.305018	308.374	750
12:43:25.158	23.28	0.249051	308.372	750
12:43:25.168	23.29	0.207079	308.371	750
12:43:25.178	23.3	0.213331	308.37	750
12:43:25.188	23.31	0.266755	308.368	750
12:43:25.198	23.32	0.326605	308.367	122.449
12:43:25.208	23.33	0.314115	308.366	122.449
12:43:25.218	23.34	0.2094	308.365	122.449
12:43:25.228	23.35	0.109634	308.363	122.449
12:43:25.238	23.36	0.0167922	308.362	122.449
12:43:25.248	23.37	-0.0623059	308.361	122.449
12:43:25.258	23.38	-0.101893	308.36	122.449
12:43:25.268	23.39	-0.0945977	308.359	122.449
12:43:25.278	23.4	-0.0218365	308.358	122.449
12:43:25.288	23.41	-0.00653673	308.357	122.449
12:43:25.298	23.42	-0.0589799	308.356	122.449
12:43:25.308	23.43	-0.107201	308.355	122.449
12:43:25.318	23.44	-0.140155	308.354	122.449
12:43:25.328	23.45	-0.126567	308.353	122.449
12:43:25.338	23.46	-0.0898662	308.352	122.449
12:43:25.348	23.47	-0.0203384	308.352	122.449
12:43:25.358	23.48	0.0734042	308.351	122.449
12:43:25.368	23.49	0.124448	308.35	122.449
12:43:25.378	23.5	0.151785	308.349	122.449
12:43:25.388	23.51	0.041978	308.349	122.449
12:43:25.398	23.52	-0.211019	308.348	122.449
12:43:25.408	23.53	-0.277257	308.347	122.449
12:43:25.418	23.54	-0.249903	308.347	122.449
12:43:25.428	23.55	-0.231093	308.346	122.449
12:43:25.438	23.56	-0.132972	308.345	122.449
12:43:25.448	23.57	-0.0374264	308.345	122.449
12:43:25.458	23.58	-0.0141987	308.344	122.449
12:43:25.468	23.59	0.0450163	308.344	122.449
12:43:25.478	23.6	0.0913052	308.343	122.449
12:43:25.488	23.61	0.0309415	308.343	122.449
12:43:25.498	23.62	-0.104068	308.342	122.449
12:43:25.508	23.63	-0.172202	308.342	122.449
12:43:25.518	23.64	-0.168164	308.341	122.449
12:43:25.528	23.65	-0.128576	308.341	122.449
12:43:25.538	23.66	-0.0772909	308.341	122.449
12:43:25.548	23.67	-0.0129326	308.34	122.449
12:43:25.558	23.68	0.0486589	308.34	122.449
12:43:25.568	23.69	0.0705649	308.34	122.449
12:43:25.578	23.7	0.0406306	308.339	122.449
12:43:25.588	23.71	-0.0100931	308.339	122.449
12:43:25.598	23.72	-0.0727389	308.339	122.449
12:43:25.608	23.73	-0.127118	308.338	122.449
12:43:25.618	23.74	-0.169777	308.338	122.449
12:43:25.628	23.75	-0.145027	308.338	122.449
12:43:25.638	23.76	-0.0474322	308.337	122.449
12:43:25.648	23.77	0.0443482	308.337	122.449
12:43:25.658	23.78	0.186095	308.337	122.449
12:43:25.668	23.79	0.240261	308.337	122.449
12:43:25.678	23.8	0.3159	308.336	122.449
12:43:25.688	23.81	0.425598	308.336	857.143
12:43:25.698	23.82	0.272791	308.336	857.143
12:43:25.708	23.83	0.205133	308.336	857.143
12:43:25.718	23.84	0.22048	308.335	857.143
12:43:25.728	23.85	0.238376	308.335	857.143
12:43:25.738	23.86	0.295579	308.335	857.143
12:43:25.748	23.87	0.275412	308.334	857.143
12:43:25.758	23.88	0.298527	308.334	92.3077
12:43:25.768	23.89	0.26222	308.334	92.3077
12:43:25.778	23.9	0.287886	308.333	92.3077
12:43:25.788	23.91	0.257808	308.333	92.3077
12:43:25.798	23.92	0.115647	308.332	92.3077
12:43:25.808	23.93	0.00716055	308.332	92.3077
12:43:25.818	23.94	-0.0743697	308.331	92.3077
12:43:25.828	23.95	-0.0930061	308.331	92.3077
12:43:25.838	23.96	-0.0415828	308.33	92.3077
12:43:25.848	23.97	-0.0162626	308.33	92.3077
12:43:25.858	23.98	0.0180758	308.329	92.3077
12:43:25.868	23.99	0.0966185	308.329	92.3077
12:43:25.878	24	0.136601	308.328	92.3077
12:43:25.888	24.01	0.108888	308.327	92.3077
12:43:25.898	24.02	0.0233971	308.327	92.3077
12:43:25.908	24.03	-0.103293	308.326	92.3077
12:43:25.918	24.04	-0.170657	308.325	92.3077
12:43:25.928	24.05	-0.17318	308.324	92.3077
12:43:25.938	24.06	-0.141798	308.324	92.3077
12:43:25.948	24.07	-0.0940266	308.323	92.3077
12:43:25.958	24.08	-0.0505707	308.322	92.3077
12:43:25.968	24.09	-0.0478672	308.321	92.3077
12:43:25.978	24.1	-0.014016	308.32	92.3077
12:43:25.988	24.11	-0.0210712	308.319	92.3077
12:43:25.998	24.12	-0.0910934	308.318	92.3077
12:43:26.008	24.13	-0.0966343	308.317	92.3077
12:43:26.018	24.14	-0.07598	308.316	92.3077
12:43:26.028	24.15	-0.0393905	308.315	92.3077
12:43:26.038	24.16	0.0379874	308.314	92.3077
12:43:26.048	24.17	0.138111	308.313	92.3077
12:43:26.058	24.18	0.169643	308.311	92.3077
12:43:26.068	24.19	0.166856	308.31	92.3077
12:43:26.078	24.2	0.133571	308.309	92.3077
12:43:26.088	24.21	0.0686283	308.308	92.3077
12:43:26.098	24.22	-0.00783376	308.306	92.3077
12:43:26.108	24.23	-0.112099	308.305	92.3077
12:43:26.118	24.24	-0.151939	308.304	92.3077
12:43:26.128	24.25	-0.141666	308.302	92.3077
12:43:26.138	24.26	-0.0969565	308.301	92.3077
12:43:26.148	24.27	-0.0154964	308.299	92.3077
12:43:26.158	24.28	0.0638479	308.298	92.3077
12:43:26.168	24.29	0.131167	308.296	92.3077
12:43:26.178	24.3	0.153892	308.295	92.3077
12:43:26.188	24.31	0.0794907	308.293	92.3077
12:43:26.198	24.32	-0.0321621	308.292	92.3077
12:43:26.208	24.33	-0.119447	308.29	92.3077
12:43:26.218	24.34	-0.161792	308.288	92.3077
12:43:26.228	24.35	-0.149034	308.287	92.3077
12:43:26.238	24.36	-0.120946	308.285	92.3077
12:43:26.248	24.37	-0.105206	308.283	92.3077
12:43:26.258	24.38	-0.0716218	308.281	92.3077
12:43:26.268	24.39	-0.0799155	308.279	92.3077
12:43:26.278	24.4	-0.0996442	308.277	92.3077
12:43:26.288	24.41	-0.0904094	308.275	92.3077
12:43:26.298	24.42	-0.0710763	308.273	92.3077
12:43:26.308	24.43	-0.0973943	308.271	92.3077
12:43:26.318	24.44	-0.125032	308.269	92.3077
12:43:26.328	24.45	-0.0822703	308.267	92.3077
12:43:26.338	24.46	-0.00234084	308.265	92.3077
12:43:26.348	24.47	0.0807322	308.263	92.3077
12:43:26.358	24.48	0.182681	308.261	92.3077
12:43:26.368	24.49	0.248338	308.259	92.3077
12:43:26.378	24.5	0.325658	308.256	92.3077
12:43:26.388	24.51	0.410744	308.254	92.3077
12:43:26.398	24.52	0.465201	308.252	92.3077
12:43:26.408	24.53	0.476496	308.25	98.3607
12:43:26.418	24.54	0.418573	308.247	98.3607
12:43:26.428	24.55	0.295528	308.245	98.3607
12:43:26.438	24.56	0.13115	308.243	98.3607
12:43:26.448	24.57	0.00435941	308.24	98.3607
12:43:26.458	24.58	-0.0440038	308.238	98.3607
12:43:26.468	24.59	-0.0564672	308.235	98.3607
12:43:26.478	24.6	-0.0267645	308.233	98.3607
12:43:26.488	24.61	0.0293926	308.23	98.3607
12:43:26.498	24.62	0.0602238	308.228	98.3607
12:43:26.508	24.63	0.0818319	308.226	98.3607
12:43:26.518	24.64	0.104014	308.223	98.3607
12:43:26.528	24.65	0.113287	308.221	98.3607
12:43:26.538	24.66	0.0461664	308.218	98.3607
12:43:26.548	24.67	-0.08669	308.216	98.3607
12:43:26.558	24.68	-0.182191	308.213	98.3607
12:43:26.568	24.69	-0.223277	308.211	98.3607
12:43:26.578	24.7	-0.240358	308.208	98.3607
12:43:26.588	24.71	-0.232703	308.206	98.3607
12:43:26.598	24.72	-0.147546	308.203	98.3607
12:43:26.608	24.73	-0.0925501	308.201	98.3607
12:43:26.618	24.74	-0.0694065	308.198	98.3607
12:43:26.628	24.75	-0.0195465	308.196	98.3607
12:43:26.638	24.76	-0.0201712	308.193	98.3607
12:43:26.648	24.77	0.030288	308.191	98.3607
12:43:26.658	24.78	-0.00120346	308.188	98.3607
12:43:26.668	24.79	-0.0804995	308.186	98.3607
12:43:26.678	24.8	-0.0566321	308.183	98.3607
12:43:26.688	24.81	-0.0668161	308.181	98.3607
12:43:26.698	24.82	-0.0550707	308.178	98.3607
12:43:26.708	24.83	-0.0523895	308.176	98.3607
12:43:26.718	24.84	-0.0525863	308.174	98.3607
12:43:26.728	24.85	-0.0599974	308.171	98.3607
12:43:26.738	24.86	-0.0644583	308.169	98.3607
12:43:26.748	24.87	-0.0492821	308.166	98.3607
12:43:26.758	24.88	-0.0664901	308.164	98.3607
12:43:26.768	24.89	-0.0881846	308.162	98.3607
12:43:26.778	24.9	-0.150102	308.16	98.3607
12:43:26.788	24.91	-0.180279	308.157	98.3607
12:43:26.798	24.92	-0.187049	308.155	98.3607
12:43:26.808	24.93	-0.191482	308.153	98.3607
12:43:26.818	24.94	-0.197848	308.151	98.3607
12:43:26.828	24.95	-0.279983	308.149	98.3607
12:43:26.838	24.96	-0.376488	308.146	98.3607
12:43:26.848	24.97	-0.463405	308.144	98.3607
12:43:26.858	24.98	-0.508405	308.142	98.3607
12:43:26.868	24.99	-0.545645	308.14	98.3607
12:43:26.878	25	-0.584776	308.138	98.3607
12:43:26.888	25.01	-0.46906	308.136	98.3607
12:43:26.898	25.02	-0.267709	308.134	98.3607
12:43:26.908	25.03	-0.118955	308.132	98.3607
12:43:26.918	25.04	-0.0405984	308.131	98.3607
12:43:26.928	25.05	-0.00230348	308.129	98.3607
12:43:26.938	25.06	-0.0410748	308.127	98.3607
12:43:26.948	25.07	-0.0287589	308.125	98.3607
12:43:26.958	25.08	0.00184458	308.123	98.3607
12:43:26.968	25.09	0.0786575	308.122	98.3607
12:43:26.978	25.1	0.170588	308.12	98.3607
12:43:26.988	25.11	0.281303	308.118	98.3607
12:43:26.998	25.12	0.387196	308.117	98.3607
12:43:27.008	25.13	0.455533	308.115	98.3607
12:43:27.018	25.14	0.471933	308.114	42.5532
12:43:27.028	25.15	0.395194	308.112	42.5532
12:43:27.038	25.16	0.307332	308.111	42.5532
12:43:27.048	25.17	0.230939	308.109	42.5532
12:43:27.058	25.18	0.147066	308.108	42.5532
12:43:27.068	25.19	0.0788169	308.106	42.5532
12:43:27.078	25.2	0.0404288	308.105	42.5532
12:43:27.088	25.21	0.0592837	308.104	42.5532
12:43:27.098	25.22	0.10574	308.102	42.5532
12:43:27.108	25.23	0.165443	308.101	42.5532
12:43:27.118	25.24	0.122652	308.1	42.5532
12:43:27.128	25.25	0.016054	308.099	42.5532
12:43:27.138	25.26	-0.0290239	308.097	42.5532
12:43:27.148	25.27	-0.0462136	308.096	42.5532
12:43:27.158	25.28	-0.0403808	308.095	42.5532
12:43:27.168	25.29	-0.0219214	308.094	42.5532
12:43:27.178	25.3	-0.0339916	308.093	42.5532
12:43:27.188	25.31	0.0145324	308.092	42.5532
12:43:27.198	25.32	0.0653166	308.091	42.5532
12:43:27.208	25.33	0.0507114	308.09	42.5532
12:43:27.218	25.34	0.00455921	308.089	42.5532
12:43:27.228	25.35	-0.0642767	308.088	42.5532
12:43:27.238	25.36	-0.13244	308.087	42.5532
12:43:27.248	25.37	-0.179997	308.087	42.5532
12:43:27.258	25.38	-0.186302	308.086	42.5532
12:43:27.268	25.39	-0.186417	308.085	42.5532
12:43:27.278	25.4	-0.113987	308.084	42.5532
12:43:27.288	25.41	-0.134248	308.083	42.5532
12:43:27.298	25.42	-0.131296	308.083	42.5532
12:43:27.308	25.43	-0.104961	308.082	42.5532
12:43:27.318	25.44	-0.0437523	308.081	42.5532
12:43:27.328	25.45	0.0242414	308.081	42.5532
12:43:27.338	25.46	0.0805221	308.08	42.5532
12:43:27.348	25.47	0.0855286	308.08	42.5532
12:43:27.358	25.48	0.0555613	308.079	42.5532
12:43:27.368	25.49	-0.0404995	308.078	42.5532
12:43:27.378	25.5	-0.112234	308.078	42.5532
12:43:27.388	25.51	-0.165394	308.077	42.5532
12:43:27.398	25.52	-0.21401	308.077	42.5532
12:43:27.408	25.53	-0.178573	308.076	42.5532
12:43:27.418	25.54	-0.123954	308.076	42.5532
12:43:27.428	25.55	-0.0509396	308.076	42.5532
12:43:27.438	25.56	0.00237482	308.075	42.5532
12:43:27.448	25.57	-0.0254197	308.075	42.5532
12:43:27.458	25.58	-0.10278	308.074	42.5532
12:43:27.468	25.59	-0.192103	308.074	42.5532
12:43:27.478	25.6	-0.211427	308.074	42.5532
12:43:27.488	25.61	-0.214869	308.073	42.5532
12:43:27.498	25.62	-0.215622	308.073	42.5532
12:43:27.508	25.63	-0.168053	308.073	42.5532
12:43:27.518	25.64	-0.0843426	308.072	42.5532
12:43:27.528	25.65	-0.0247806	308.072	42.5532
12:43:27.538	25.66	-0.0219474	308.072	42.5532
12:43:27.548	25.67	-0.00448495	308.072	42.5532
12:43:27.558	25.68	0.00693333	308.071	42.5532
12:43:27.568	25.69	-0.0656427	308.071	42.5532
12:43:27.578	25.7	-0.137193	308.071	42.5532
12:43:27.588	25.71	-0.137822	308.071	42.5532
12:43:27.598	25.72	-0.115757	308.07	42.5532
12:43:27.608	25.73	-0.0962166	308.07	42.5532
12:43:27.618	25.74	-0.0635323	308.07	42.5532
12:43:27.628	25.75	-0.00182019	308.07	42.5532
12:43:27.638	25.76	0.101711	308.069	42.5532
12:43:27.648	25.77	0.205736	308.069	42.5532
12:43:27.658	25.78	0.266298	308.069	42.5532
12:43:27.668	25.79	0.260435	308.069	42.5532
12:43:27.678	25.8	0.172523	308.068	42.5532
12:43:27.688	25.81	0.0715741	308.068	42.5532
12:43:27.698	25.82	0.00301847	308.068	42.5532
12:43:27.708	25.83	0.000320154	308.068	42.5532
12:43:27.718	25.84	0.0370225	308.067	42.5532
12:43:27.728	25.85	0.0878421	308.067	42.5532
12:43:27.738	25.86	0.0879402	308.066	42.5532
12:43:27.748	25.87	0.032463	308.066	42.5532
12:43:27.758	25.88	-0.0360603	308.066	42.5532
12:43:27.768	25.89	0.02858	308.065	42.5532
12:43:27.778	25.9	-0.0971908	308.065	42.5532
12:43:27.788	25.91	-0.115547	308.064	42.5532
12:43:27.798	25.92	-0.133192	308.064	42.5532
12:43:27.808	25.93	-0.196087	308.063	42.5532
12:43:27.818	25.94	-0.198186	308.063	42.5532
12:43:27.828	25.95	-0.19741	308.062	42.5532
12:43:27.838	25.96	-0.0772899	308.062	42.5532
12:43:27.848	25.97	-0.109448	308.061	42.5532
12:43:27.858	25.98	-0.0757506	308.06	42.5532
12:43:27.868	25.99	-0.0405124	308.06	42.5532
12:43:27.878	26	0.0585771	308.059	42.5532
12:43:27.888	26.01	-0.0104926	308.058	42.5532
12:43:27.898	26.02	-0.00576095	308.058	42.5532
12:43:27.908	26.03	-0.0521799	308.057	42.5532
12:43:27.918	26.04	-0.063407	308.056	42.5532
12:43:27.928	26.05	-0.0859944	308.055	42.5532
12:43:27.938	26.06	-0.128681	308.054	42.5532
12:43:27.948	26.07	-0.150966	308.053	42.5532
12:43:27.958	26.08	-0.144219	308.052	42.5532
12:43:27.968	26.09	-0.111717	308.052	42.5532
12:43:27.978	26.1	-0.024781	308.051	42.5532
12:43:27.988	26.11	0.0356744	308.05	42.5532
12:43:27.998	26.12	0.0353374	308.048	42.5532
12:43:28.008	26.13	-0.0180707	308.047	42.5532
12:43:28.018	26.14	-0.14016	308.046	42.5532
12:43:28.028	26.15	-0.240209	308.045	42.5532
12:43:28.038	26.16	-0.270045	308.044	42.5532
12:43:28.048	26.17	-0.25565	308.043	42.5532
12:43:28.058	26.18	-0.176337	308.042	42.5532
12:43:28.068	26.19	-0.0624865	308.041	42.5532
12:43:28.078	26.2	-0.0308185	308.039	42.5532
12:43:28.088	26.21	-0.0360835	308.038	42.5532
12:43:28.098	26.22	-0.0212322	308.037	42.5532
12:43:28.108	26.23	-0.00482581	308.036	42.5532
12:43:28.118	26.24	-0.00697597	308.034	42.5532
12:43:28.128	26.25	-0.0046061	308.033	42.5532
12:43:28.138	26.26	0.00112334	308.032	42.5532
12:43:28.148	26.27	0.0331916	308.03	42.5532
12:43:28.158	26.28	0.0791216	308.029	42.5532
12:43:28.168	26.29	0.113746	308.027	42.5532
12:43:28.178	26.3	0.121848	308.026	42.5532
12:43:28.188	26.31	0.110822	308.025	42.5532
12:43:28.198	26.32	0.0942741	308.023	42.5532
12:43:28.208	26.33	0.0887955	308.022	42.5532
12:43:28.218	26.34	0.124864	308.02	42.5532
12:43:28.228	26.35	0.199189	308.019	42.5532
12:43:28.238	26.36	0.242818	308.018	42.5532
12:43:28.248	26.37	0.255835	308.016	42.5532
12:43:28.258	26.38	0.257759	308.015	42.5532
12:43:28.268	26.39	0.214962	308.013	42.5532
12:43:28.278	26.4	0.14518	308.012	42.5532
12:43:28.288	26.41	0.0728079	308.01	42.5532
12:43:28.298	26.42	0.0407995	308.009	42.5532
12:43:28.308	26.43	0.051832	308.008	42.5532
12:43:28.318	26.44	0.0791401	308.006	42.5532
12:43:28.328	26.45	0.131423	308.005	42.5532
12:43:28.338	26.46	0.171708	308.003	42.5532
12:43:28.348	26.47	0.166076	308.002	42.5532
12:43:28.358	26.48	0.0848224	308	42.5532
12:43:28.368	26.49	-0.00406254	307.999	42.5532
12:43:28.378	26.5	-0.029381	307.998	42.5532
12:43:28.388	26.51	0.03053	307.996	42.5532
12:43:28.398	26.52	0.134951	307.995	42.5532
12:43:28.408	26.53	0.227619	307.994	42.5532
12:43:28.418	26.54	0.311171	307.992	42.5532
12:43:28.428	26.55	0.374588	307.991	133.333
12:43:28.438	26.56	0.308742	307.989	133.333
12:43:28.448	26.57	0.186022	307.988	133.333
12:43:28.458	26.58	0.125208	307.987	133.333
12:43:28.468	26.59	0.0633077	307.986	133.333
12:43:28.478	26.6	0.0265524	307.984	133.333
12:43:28.488	26.61	0.0178503	307.983	133.333
12:43:28.498	26.62	0.0278917	307.982	133.333
12:43:28.508	26.63	0.0471789	307.981	133.333
12:43:28.518	26.64	0.0712443	307.979	133.333
12:43:28.528	26.65	0.123614	307.978	133.333
12:43:28.538	26.66	0.182531	307.977	133.333
12:43:28.548	26.67	0.223637	307.976	133.333
12:43:28.558	26.68	0.234142	307.975	133.333
12:43:28.568	26.69	0.179174	307.973	133.333
12:43:28.578	26.7	0.0828629	307.972	133.333
12:43:28.588	26.71	-0.018349	307.971	133.333
12:43:28.598	26.72	-0.091327	307.97	133.333
12:43:28.608	26.73	-0.130407	307.969	133.333
12:43:28.618	26.74	-0.135482	307.968	133.333
12:43:28.628	26.75	-0.0831327	307.967	133.333
12:43:28.638	26.76	-0.0525852	307.966	133.333
12:43:28.648	26.77	-0.0716559	307.965	133.333
12:43:28.658	26.78	-0.0672195	307.964	133.333
12:43:28.668	26.79	-0.0903848	307.963	133.333
12:43:28.678	26.8	-0.0906092	307.962	133.333
12:43:28.688	26.81	-0.0856837	307.962	133.333
12:43:28.698	26.82	-0.0488724	307.961	133.333
12:43:28.708	26.83	0.0408644	307.96	133.333
12:43:28.718	26.84	0.0704823	307.959	133.333
12:43:28.728	26.85	0.0697583	307.958	133.333
12:43:28.738	26.86	0.00797152	307.958	133.333
12:43:28.748	26.87	-0.0531616	307.957	133.333
12:43:28.758	26.88	-0.0439967	307.956	133.333
12:43:28.768	26.89	-0.0379188	307.955	133.333
12:43:28.778	26.9	0.0120312	307.955	133.333
12:43:28.788	26.91	0.0426607	307.954	133.333
12:43:28.798	26.92	0.0748128	307.954	133.333
12:43:28.808	26.93	0.0976466	307.953	133.333
12:43:28.818	26.94	0.165165	307.952	133.333
12:43:28.828	26.95	0.206673	307.952	133.333
12:43:28.838	26.96	0.150524	307.951	133.333
12:43:28.848	26.97	0.162127	307.951	133.333
12:43:28.858	26.98	0.221307	307.95	133.333
12:43:28.868	26.99	0.287412	307.95	133.333
12:43:28.878	27	0.340501	307.95	109.091
12:43:28.888	27.01	0.273737	307.949	109.091
12:43:28.898	27.02	0.170906	307.949	109.091
12:43:28.908	27.03	0.165299	307.948	109.091
12:43:28.918	27.04	0.0966104	307.948	109.091
12:43:28.928	27.05	-0.156828	307.948	109.091
12:43:28.938	27.06	-0.181335	307.947	109.091
12:43:28.948	27.07	-0.330311	307.947	109.091
12:43:28.958	27.08	-0.300289	307.947	109.091
12:43:28.968	27.09	-0.204709	307.947	109.091
12:43:28.978	27.1	-0.182523	307.947	109.091
12:43:28.988	27.11	-0.224328	307.946	109.091
12:43:28.998	27.12	-0.337224	307.946	109.091
12:43:29.008	27.13	-0.409808	307.946	109.091
12:43:29.018	27.14	-0.376664	307.946	109.091
12:43:29.028	27.15	-0.262995	307.946	109.091
12:43:29.038	27.16	-0.102456	307.946	109.091
12:43:29.048	27.17	-0.103518	307.946	109.091
12:43:29.058	27.18	-0.203669	307.946	109.091
12:43:29.068	27.19	-0.248877	307.945	109.091
12:43:29.078	27.2	-0.271146	307.945	109.091
12:43:29.088	27.21	-0.247249	307.945	109.091
12:43:29.098	27.22	-0.189389	307.945	109.091
12:43:29.108	27.23	-0.164479	307.945	109.091
12:43:29.118	27.24	-0.083963	307.945	109.091
12:43:29.128	27.25	0.0174517	307.945	109.091
12:43:29.138	27.26	0.115472	307.945	109.091
12:43:29.148	27.27	0.136791	307.946	109.091
12:43:29.158	27.28	0.119817	307.946	109.091
12:43:29.168	27.29	0.08164	307.946	109.091
12:43:29.178	27.3	0.0258926	307.946	109.091
12:43:29.188	27.31	0.00428773	307.946	109.091
12:43:29.198	27.32	-0.0470152	307.946	109.091
12:43:29.208	27.33	-0.101482	307.946	109.091
12:43:29.218	27.34	-0.101685	307.946	109.091
12:43:29.228	27.35	-0.0617291	307.946	109.091
12:43:29.238	27.36	-0.0245792	307.946	109.091
12:43:29.248	27.37	-0.00832655	307.946	109.091
12:43:29.258	27.38	0.014148	307.946	109.091
12:43:29.268	27.39	0.0322774	307.946	109.091
12:43:29.278	27.4	-0.0257136	307.947	109.091
12:43:29.288	27.41	-0.133142	307.947	109.091
12:43:29.298	27.42	-0.216564	307.947	109.091
12:43:29.308	27.43	-0.238123	307.947	109.091
12:43:29.318	27.44	-0.189169	307.947	109.091
12:43:29.328	27.45	-0.178148	307.947	109.091
12:43:29.338	27.46	-0.258285	307.947	109.091
12:43:29.348	27.47	-0.254459	307.947	109.091
12:43:29.358	27.48	-0.184679	307.947	109.091
12:43:29.368	27.49	-0.117488	307.947	109.091
12:43:29.378	27.5	-0.0307115	307.947	109.091
12:43:29.388	27.51	0.112761	307.947	109.091
12:43:29.398	27.52	0.304254	307.947	109.091
12:43:29.408	27.53	0.482847	307.948	109.091
12:43:29.418	27.54	0.619709	307.948	109.091
12:43:29.428	27.55	0.639869	307.948	400
12:43:29.438	27.56	0.450341	307.948	400
