TimeOfDay	Time	Pulse	Skin Conductance	Heart Rate
21:22:28.670	0	0.00155463	8.43933e-07	92.3077
21:22:28.680	0.01	-0.0190987	3.23617e-05	92.3077
21:22:28.690	0.02	-0.0225419	0.000195435	92.3077
21:22:28.700	0.03	-0.029661	0.000657124	92.3077
21:22:28.710	0.04	-0.0403912	0.00169844	92.3077
21:22:28.720	0.05	-0.0626067	0.00372891	92.3077
21:22:28.730	0.06	-0.0961512	0.0072825	92.3077
21:22:28.740	0.07	-0.127912	0.0130081	92.3077
21:22:28.750	0.08	-0.152846	0.0216565	92.3077
21:22:28.760	0.09	-0.160299	0.0340656	92.3077
21:22:28.770	0.1	-0.15877	0.0511514	92.3077
21:22:28.780	0.11	-0.14509	0.0740294	92.3077
21:22:28.790	0.12	-0.147358	0.104241	92.3077
21:22:28.800	0.13	-0.153764	0.143775	92.3077
21:22:28.810	0.14	-0.151709	0.195012	92.3077
21:22:28.820	0.15	-0.150359	0.26066	92.3077
21:22:28.830	0.16	-0.149671	0.343697	92.3077
21:22:28.840	0.17	-0.147579	0.447328	92.3077
21:22:28.850	0.18	-0.142811	0.574929	92.3077
21:22:28.860	0.19	-0.127106	0.730007	92.3077
21:22:28.870	0.2	-0.101534	0.91616	92.3077
21:22:28.880	0.21	-0.079564	1.13704	92.3077
21:22:28.890	0.22	-0.0582986	1.39631	92.3077
21:22:28.900	0.23	-0.0369103	1.69764	92.3077
21:22:28.910	0.24	-0.0168799	2.04465	92.3077
21:22:28.920	0.25	-0.0240996	2.44088	92.3077
21:22:28.930	0.26	-0.0458297	2.88982	92.3077
21:22:28.940	0.27	-0.0530012	3.39481	92.3077
21:22:28.950	0.28	-0.0541621	3.95909	92.3077
21:22:28.960	0.29	-0.034545	4.58575	92.3077
21:22:28.970	0.3	0.00591599	5.27774	92.3077
21:22:28.980	0.31	0.0334812	6.03783	92.3077
21:22:28.990	0.32	0.0489498	6.86859	92.3077
21:22:29.000	0.33	0.0551987	7.77244	92.3077
21:22:29.010	0.34	0.0459964	8.75159	92.3077
21:22:29.020	0.35	0.0221527	9.80805	92.3077
21:22:29.030	0.36	-0.00322747	10.9436	92.3077
21:22:29.040	0.37	-0.0214403	12.1599	92.3077
21:22:29.050	0.38	-0.0308998	13.4583	92.3077
21:22:29.060	0.39	-0.0383944	14.84	92.3077
21:22:29.070	0.4	-0.0317807	16.3059	92.3077
21:22:29.080	0.41	-0.0369291	17.8568	92.3077
21:22:29.090	0.42	-0.0395206	19.4933	92.3077
21:22:29.100	0.43	-0.0361918	21.2157	92.3077
21:22:29.110	0.44	-0.022012	23.0242	92.3077
21:22:29.120	0.45	-0.0005644	24.9187	92.3077
21:22:29.130	0.46	0.02031	26.8989	92.3077
21:22:29.140	0.47	0.0296392	28.9645	92.3077
21:22:29.150	0.48	0.0277698	31.1148	92.3077
21:22:29.160	0.49	0.0207063	33.349	92.3077
21:22:29.170	0.5	0.00903498	35.6661	92.3077
21:22:29.180	0.51	0.0174868	38.0651	92.3077
21:22:29.190	0.52	0.0407775	40.5447	92.3077
21:22:29.200	0.53	0.0454518	43.1033	92.3077
21:22:29.210	0.54	0.0274451	45.7395	92.3077
21:22:29.220	0.55	0.0244717	48.4515	92.3077
21:22:29.230	0.56	0.0393978	51.2374	92.3077
21:22:29.240	0.57	0.0578013	54.0954	92.3077
21:22:29.250	0.58	0.0864107	57.0233	92.3077
21:22:29.260	0.59	0.124939	60.0189	92.3077
21:22:29.270	0.6	0.147788	63.0799	92.3077
21:22:29.280	0.61	0.148852	66.204	92.3077
21:22:29.290	0.62	0.13784	69.3886	92.3077
21:22:29.300	0.63	0.113763	72.6313	92.3077
21:22:29.310	0.64	0.0832026	75.9294	92.3077
21:22:29.320	0.65	0.0601075	79.2802	92.3077
21:22:29.330	0.66	0.0347182	82.6808	92.3077
21:22:29.340	0.67	-0.00615467	86.1286	92.3077
21:22:29.350	0.68	-0.0391717	89.6207	92.3077
21:22:29.360	0.69	-0.0600098	93.154	92.3077
21:22:29.370	0.7	-0.0895964	96.7258	92.3077
21:22:29.380	0.71	-0.125432	100.333	92.3077
21:22:29.390	0.72	-0.132127	103.973	92.3077
21:22:29.400	0.73	-0.121028	107.642	92.3077
21:22:29.410	0.74	-0.110284	111.337	92.3077
21:22:29.420	0.75	-0.0933097	115.056	92.3077
21:22:29.430	0.76	-0.0809836	118.794	92.3077
21:22:29.440	0.77	-0.0733811	122.551	92.3077
21:22:29.450	0.78	-0.0595212	126.321	92.3077
21:22:29.460	0.79	-0.0450373	130.102	92.3077
21:22:29.470	0.8	-0.0498471	133.891	92.3077
21:22:29.480	0.81	-0.0583348	137.684	92.3077
21:22:29.490	0.82	-0.0670539	141.479	92.3077
21:22:29.500	0.83	-0.0635207	145.273	92.3077
21:22:29.510	0.84	-0.053249	149.061	92.3077
21:22:29.520	0.85	-0.0389966	152.842	92.3077
21:22:29.530	0.86	-0.0363839	156.612	92.3077
21:22:29.540	0.87	-0.023411	160.368	92.3077
21:22:29.550	0.88	-0.00990161	164.106	92.3077
21:22:29.560	0.89	-0.00254558	167.823	92.3077
21:22:29.570	0.9	0.0048204	171.515	92.3077
21:22:29.580	0.91	0.0259979	175.179	92.3077
21:22:29.590	0.92	0.0576786	178.812	92.3077
21:22:29.600	0.93	0.0774652	182.411	92.3077
21:22:29.610	0.94	0.0962129	185.974	92.3077
21:22:29.620	0.95	0.115278	189.498	92.3077
21:22:29.630	0.96	0.115084	192.981	92.3077
21:22:29.640	0.97	0.0976842	196.42	92.3077
21:22:29.650	0.98	0.0717599	199.816	92.3077
21:22:29.660	0.99	0.066685	203.164	92.3077
21:22:29.670	1	0.0617371	206.465	92.3077
21:22:29.680	1.01	0.0429762	209.717	92.3077
21:22:29.690	1.02	0.0386538	212.919	92.3077
21:22:29.700	1.03	0.0563856	216.069	92.3077
21:22:29.710	1.04	0.0665702	219.166	92.3077
21:22:29.720	1.05	0.0662558	222.211	92.3077
21:22:29.730	1.06	0.0517802	225.202	92.3077
21:22:29.740	1.07	0.0203138	228.139	92.3077
21:22:29.750	1.08	-0.00924871	231.021	92.3077
21:22:29.760	1.09	-0.0348996	233.848	92.3077
21:22:29.770	1.1	-0.0320374	236.62	92.3077
21:22:29.780	1.11	-0.0127504	239.337	92.3077
21:22:29.790	1.12	0.00560044	241.998	92.3077
21:22:29.800	1.13	0.0163995	244.604	92.3077
21:22:29.810	1.14	0.0161471	247.154	92.3077
21:22:29.820	1.15	0.0239524	249.649	92.3077
21:22:29.830	1.16	0.0314631	252.09	92.3077
21:22:29.840	1.17	0.0392989	254.475	92.3077
21:22:29.850	1.18	0.0586853	256.806	92.3077
21:22:29.860	1.19	0.0854689	259.083	92.3077
21:22:29.870	1.2	0.112958	261.307	92.3077
21:22:29.880	1.21	0.125803	263.477	92.3077
21:22:29.890	1.22	0.154537	265.595	92.3077
21:22:29.900	1.23	0.198667	267.661	92.3077
21:22:29.910	1.24	0.241858	269.675	92.3077
21:22:29.920	1.25	0.267452	271.639	92.3077
21:22:29.930	1.26	0.291567	273.552	428.571
21:22:29.940	1.27	0.290624	275.416	428.571
21:22:29.950	1.28	0.263198	277.23	428.571
21:22:29.960	1.29	0.255398	278.997	428.571
21:22:29.970	1.3	0.257283	280.717	428.571
21:22:29.980	1.31	0.256684	282.39	428.571
21:22:29.990	1.32	0.225771	284.017	428.571
21:22:30.000	1.33	0.204486	285.599	428.571
21:22:30.010	1.34	0.175828	287.136	428.571
21:22:30.020	1.35	0.140222	288.63	428.571
21:22:30.030	1.36	0.0712174	290.082	428.571
21:22:30.040	1.37	0.068759	291.492	428.571
21:22:30.050	1.38	0.1181	292.861	428.571
21:22:30.060	1.39	0.168784	294.189	428.571
21:22:30.070	1.4	0.173763	295.478	51.2821
21:22:30.080	1.41	0.108429	296.729	51.2821
21:22:30.090	1.42	-0.000221587	297.942	51.2821
21:22:30.100	1.43	-0.115932	299.118	51.2821
21:22:30.110	1.44	-0.229932	300.259	51.2821
21:22:30.120	1.45	-0.309544	301.363	51.2821
21:22:30.130	1.46	-0.365078	302.434	51.2821
21:22:30.140	1.47	-0.333913	303.471	51.2821
21:22:30.150	1.48	-0.309476	304.475	51.2821
21:22:30.160	1.49	-0.249425	305.447	51.2821
21:22:30.170	1.5	-0.177597	306.388	51.2821
21:22:30.180	1.51	-0.111298	307.299	51.2821
21:22:30.190	1.52	-0.0274631	308.18	51.2821
21:22:30.200	1.53	0.0646889	309.032	51.2821
21:22:30.210	1.54	0.0980816	309.855	51.2821
21:22:30.220	1.55	0.113447	310.652	51.2821
21:22:30.230	1.56	0.111144	311.422	51.2821
21:22:30.240	1.57	0.067825	312.165	51.2821
21:22:30.250	1.58	0.0116694	312.884	51.2821
21:22:30.260	1.59	-0.0135452	313.578	51.2821
21:22:30.270	1.6	-0.0214128	314.248	51.2821
21:22:30.280	1.61	-0.0249982	314.895	51.2821
21:22:30.290	1.62	-0.0234414	315.519	51.2821
21:22:30.300	1.63	-0.0333194	316.121	51.2821
21:22:30.310	1.64	-0.0355196	316.702	51.2821
21:22:30.320	1.65	-0.0139603	317.263	51.2821
21:22:30.330	1.66	-0.00831132	317.803	51.2821
21:22:30.340	1.67	0.00589534	318.324	51.2821
21:22:30.350	1.68	0.057927	318.826	51.2821
21:22:30.360	1.69	0.0883157	319.309	51.2821
21:22:30.370	1.7	0.116431	319.775	51.2821
21:22:30.380	1.71	0.126305	320.224	51.2821
21:22:30.390	1.72	0.129253	320.655	51.2821
21:22:30.400	1.73	0.115033	321.071	51.2821
21:22:30.410	1.74	0.0696087	321.471	51.2821
21:22:30.420	1.75	0.0017594	321.855	51.2821
21:22:30.430	1.76	-0.0386386	322.225	51.2821
21:22:30.440	1.77	-0.0580194	322.58	51.2821
21:22:30.450	1.78	-0.0570717	322.922	51.2821
21:22:30.460	1.79	-0.0416172	323.25	51.2821
21:22:30.470	1.8	-0.0131184	323.565	51.2821
21:22:30.480	1.81	-0.011864	323.867	51.2821
21:22:30.490	1.82	-0.00732663	324.157	51.2821
21:22:30.500	1.83	0.0147567	324.435	51.2821
21:22:30.510	1.84	0.0521082	324.702	51.2821
21:22:30.520	1.85	0.0679733	324.957	51.2821
21:22:30.530	1.86	0.0834571	325.202	51.2821
21:22:30.540	1.87	0.111763	325.436	51.2821
21:22:30.550	1.88	0.121784	325.66	51.2821
21:22:30.560	1.89	0.0954685	325.874	51.2821
21:22:30.570	1.9	0.0561746	326.078	51.2821
21:22:30.580	1.91	0.0235422	326.274	51.2821
21:22:30.590	1.92	-0.00408272	326.46	51.2821
21:22:30.600	1.93	-0.0349768	326.638	51.2821
21:22:30.610	1.94	-0.0764043	326.807	51.2821
21:22:30.620	1.95	-0.103021	326.967	51.2821
21:22:30.630	1.96	-0.120638	327.12	51.2821
21:22:30.640	1.97	-0.110257	327.265	51.2821
21:22:30.650	1.98	-0.0770339	327.402	51.2821
21:22:30.660	1.99	-0.0366698	327.532	51.2821
21:22:30.670	2	-0.0342682	327.655	51.2821
21:22:30.679	2.01	-0.0478763	327.771	51.2821
21:22:30.690	2.02	-0.0625931	327.88	51.2821
21:22:30.699	2.03	-0.0847042	327.982	51.2821
21:22:30.710	2.04	-0.10668	328.078	51.2821
21:22:30.720	2.05	-0.111043	328.167	51.2821
21:22:30.730	2.06	-0.0882737	328.25	51.2821
21:22:30.740	2.07	-0.0911651	328.326	51.2821
21:22:30.750	2.08	-0.0483554	328.397	51.2821
21:22:30.760	2.09	-0.00526211	328.461	51.2821
21:22:30.770	2.1	0.0268957	328.519	51.2821
21:22:30.780	2.11	0.0334093	328.571	51.2821
21:22:30.790	2.12	0.0177103	328.617	51.2821
21:22:30.800	2.13	0.00789732	328.657	51.2821
21:22:30.810	2.14	-0.0127706	328.691	51.2821
21:22:30.820	2.15	-0.015402	328.718	51.2821
21:22:30.830	2.16	0.00955384	328.74	51.2821
21:22:30.840	2.17	0.0208575	328.754	51.2821
21:22:30.850	2.18	-0.00599319	328.762	51.2821
21:22:30.860	2.19	-0.0440104	328.763	51.2821
21:22:30.870	2.2	-0.0703843	328.756	51.2821
21:22:30.880	2.21	-0.0780669	328.742	51.2821
21:22:30.890	2.22	-0.0822986	328.72	51.2821
21:22:30.900	2.23	-0.0803799	328.689	51.2821
21:22:30.910	2.24	-0.105835	328.65	51.2821
21:22:30.920	2.25	-0.128038	328.603	51.2821
21:22:30.930	2.26	-0.147059	328.546	51.2821
21:22:30.940	2.27	-0.155745	328.481	51.2821
21:22:30.950	2.28	-0.162388	328.407	51.2821
21:22:30.960	2.29	-0.142467	328.324	51.2821
21:22:30.970	2.3	-0.133871	328.231	51.2821
21:22:30.980	2.31	-0.154048	328.129	51.2821
21:22:30.990	2.32	-0.168636	328.017	51.2821
21:22:31.000	2.33	-0.181175	327.895	51.2821
21:22:31.010	2.34	-0.179462	327.764	51.2821
21:22:31.020	2.35	-0.198178	327.622	51.2821
21:22:31.030	2.36	-0.165574	327.469	51.2821
21:22:31.040	2.37	-0.106327	327.306	51.2821
21:22:31.050	2.38	-0.107703	327.131	51.2821
21:22:31.060	2.39	-0.0731571	326.945	51.2821
21:22:31.070	2.4	-0.0866552	326.747	51.2821
21:22:31.080	2.41	-0.103792	326.537	51.2821
21:22:31.090	2.42	-0.0990636	326.314	51.2821
21:22:31.100	2.43	-0.110969	326.079	51.2821
21:22:31.110	2.44	-0.153669	325.829	51.2821
21:22:31.120	2.45	-0.176584	325.567	51.2821
21:22:31.130	2.46	-0.156709	325.29	51.2821
21:22:31.140	2.47	-0.151274	324.999	51.2821
21:22:31.150	2.48	-0.134676	324.693	51.2821
21:22:31.160	2.49	-0.100448	324.373	51.2821
21:22:31.170	2.5	-0.0782799	324.039	51.2821
21:22:31.180	2.51	-0.0467339	323.69	51.2821
21:22:31.190	2.52	0.00378713	323.326	51.2821
21:22:31.200	2.53	0.048754	322.948	51.2821
21:22:31.210	2.54	0.0888212	322.555	51.2821
21:22:31.220	2.55	0.108379	322.147	51.2821
21:22:31.230	2.56	0.0950271	321.724	51.2821
21:22:31.240	2.57	0.171645	321.287	93.75
21:22:31.250	2.58	0.154831	320.835	93.75
21:22:31.260	2.59	0.153751	320.369	93.75
21:22:31.270	2.6	0.10487	319.888	93.75
21:22:31.280	2.61	0.0547795	319.392	93.75
21:22:31.290	2.62	0.0204346	318.882	93.75
21:22:31.300	2.63	-0.0137137	318.357	93.75
21:22:31.310	2.64	-0.0300092	317.819	93.75
21:22:31.320	2.65	-0.0284035	317.266	93.75
21:22:31.330	2.66	-0.0344616	316.698	93.75
21:22:31.340	2.67	-0.0380066	316.117	93.75
21:22:31.350	2.68	-0.0213798	315.523	93.75
21:22:31.360	2.69	-0.0160452	314.914	93.75
21:22:31.370	2.7	-0.0262694	314.292	93.75
21:22:31.380	2.71	-0.0387538	313.657	93.75
21:22:31.390	2.72	-0.0349409	313.008	93.75
21:22:31.400	2.73	-0.0452926	312.347	93.75
21:22:31.410	2.74	-0.0541317	311.672	93.75
21:22:31.420	2.75	-0.0643198	310.985	93.75
21:22:31.430	2.76	-0.0545652	310.286	93.75
21:22:31.440	2.77	-0.0187309	309.575	93.75
21:22:31.450	2.78	0.0198415	308.852	93.75
21:22:31.460	2.79	0.037465	308.118	93.75
21:22:31.470	2.8	0.0507569	307.372	93.75
21:22:31.480	2.81	0.0625742	306.616	93.75
21:22:31.490	2.82	0.0578582	305.849	93.75
21:22:31.500	2.83	0.0467007	305.072	93.75
21:22:31.510	2.84	0.0324001	304.286	93.75
21:22:31.520	2.85	0.034567	303.49	93.75
21:22:31.530	2.86	0.0362367	302.685	93.75
21:22:31.540	2.87	0.0416415	301.872	93.75
21:22:31.550	2.88	0.0552702	301.05	93.75
21:22:31.560	2.89	0.0599817	300.221	93.75
21:22:31.570	2.9	0.0633778	299.385	93.75
21:22:31.580	2.91	0.0627108	298.542	93.75
21:22:31.590	2.92	0.0724618	297.692	93.75
21:22:31.600	2.93	0.0774588	296.837	93.75
21:22:31.610	2.94	0.0622181	295.977	93.75
21:22:31.620	2.95	0.0462751	295.112	93.75
21:22:31.630	2.96	0.0477173	294.242	93.75
21:22:31.640	2.97	0.0523576	293.368	93.75
21:22:31.650	2.98	0.0618159	292.491	93.75
21:22:31.660	2.99	0.0553922	291.611	93.75
21:22:31.670	3	0.0546524	290.729	93.75
21:22:31.680	3.01	0.044101	289.845	93.75
21:22:31.690	3.02	0.0251589	288.959	93.75
21:22:31.700	3.03	0.00933546	288.073	93.75
21:22:31.710	3.04	-0.0288473	287.186	93.75
21:22:31.720	3.05	-0.067921	286.299	93.75
21:22:31.730	3.06	-0.0916552	285.412	93.75
21:22:31.740	3.07	-0.118896	284.526	93.75
21:22:31.750	3.08	-0.15961	283.642	93.75
21:22:31.760	3.09	-0.169937	282.76	93.75
21:22:31.770	3.1	-0.149337	281.88	93.75
21:22:31.780	3.11	-0.135698	281.003	93.75
21:22:31.790	3.12	-0.126042	280.128	93.75
21:22:31.800	3.13	-0.100032	279.258	93.75
21:22:31.810	3.14	-0.0786533	278.391	93.75
21:22:31.820	3.15	-0.079661	277.529	93.75
21:22:31.830	3.16	-0.0609389	276.672	93.75
21:22:31.840	3.17	-0.0188178	275.82	93.75
21:22:31.850	3.18	0.0305651	274.973	93.75
21:22:31.860	3.19	0.0791603	274.132	93.75
21:22:31.870	3.2	0.139402	273.297	93.75
21:22:31.880	3.21	0.160482	272.469	193.548
21:22:31.890	3.22	0.129229	271.648	193.548
21:22:31.900	3.23	0.0917872	270.833	193.548
21:22:31.910	3.24	0.0583136	270.026	193.548
21:22:31.920	3.25	0.0272291	269.226	193.548
21:22:31.930	3.26	-0.0105063	268.435	193.548
21:22:31.940	3.27	-0.0278286	267.651	193.548
21:22:31.950	3.28	-0.0306292	266.876	193.548
21:22:31.960	3.29	-0.045144	266.109	193.548
21:22:31.970	3.3	-0.0771802	265.351	193.548
21:22:31.980	3.31	-0.0973323	264.602	193.548
21:22:31.990	3.32	-0.125201	263.862	193.548
21:22:32.000	3.33	-0.0542583	263.131	193.548
21:22:32.010	3.34	-0.00549885	262.409	193.548
21:22:32.020	3.35	0.00142975	261.698	193.548
21:22:32.030	3.36	-0.0284367	260.995	193.548
21:22:32.040	3.37	-0.0250336	260.303	193.548
21:22:32.050	3.38	-0.0554431	259.621	193.548
21:22:32.060	3.39	-0.0339574	258.948	193.548
21:22:32.070	3.4	-0.015076	258.286	193.548
21:22:32.080	3.41	0.0441042	257.633	193.548
21:22:32.090	3.42	0.0890976	256.991	193.548
21:22:32.100	3.43	0.141009	256.36	193.548
21:22:32.110	3.44	0.174534	255.739	193.548
21:22:32.120	3.45	0.214831	255.128	193.548
21:22:32.130	3.46	0.233301	254.527	193.548
21:22:32.140	3.47	0.211042	253.937	193.548
21:22:32.150	3.48	0.1861	253.358	193.548
21:22:32.160	3.49	0.244474	252.789	193.548
21:22:32.170	3.5	0.377172	252.231	193.548
21:22:32.180	3.51	0.431622	251.683	193.548
21:22:32.190	3.52	0.447252	251.146	375
21:22:32.200	3.53	0.409617	250.619	375
21:22:32.210	3.54	0.321948	250.103	375
21:22:32.220	3.55	0.165654	249.598	375
21:22:32.230	3.56	0.0586481	249.102	375
21:22:32.240	3.57	0.0300349	248.617	375
21:22:32.250	3.58	-0.0025183	248.142	375
21:22:32.260	3.59	-0.0311343	247.678	375
21:22:32.270	3.6	0.0396304	247.223	375
21:22:32.280	3.61	0.147685	246.778	375
21:22:32.290	3.62	0.119149	246.343	375
21:22:32.300	3.63	0.142975	245.918	375
21:22:32.310	3.64	0.175442	245.502	375
21:22:32.320	3.65	0.234227	245.096	375
21:22:32.330	3.66	0.260948	244.7	375
21:22:32.340	3.67	0.267903	244.312	375
21:22:32.350	3.68	0.268768	243.934	122.449
21:22:32.360	3.69	0.227475	243.565	122.449
21:22:32.370	3.7	0.180801	243.205	122.449
21:22:32.380	3.71	0.149746	242.854	122.449
21:22:32.390	3.72	0.140871	242.512	122.449
21:22:32.400	3.73	0.138225	242.178	122.449
21:22:32.410	3.74	0.141362	241.853	122.449
21:22:32.420	3.75	0.153435	241.536	122.449
21:22:32.430	3.76	0.163208	241.228	122.449
21:22:32.440	3.77	0.155932	240.928	122.449
21:22:32.450	3.78	0.0991852	240.636	122.449
21:22:32.460	3.79	0.0379954	240.352	122.449
21:22:32.470	3.8	-0.0208398	240.076	122.449
21:22:32.480	3.81	-0.0822581	239.807	122.449
21:22:32.490	3.82	-0.126809	239.547	122.449
21:22:32.500	3.83	-0.150827	239.293	122.449
21:22:32.510	3.84	-0.141706	239.047	122.449
21:22:32.520	3.85	-0.111424	238.808	122.449
21:22:32.530	3.86	-0.0764699	238.576	122.449
21:22:32.540	3.87	-0.128356	238.35	122.449
21:22:32.550	3.88	-0.18386	238.13	122.449
21:22:32.560	3.89	-0.219227	237.917	122.449
21:22:32.570	3.9	-0.274031	237.71	122.449
21:22:32.580	3.91	-0.288985	237.508	122.449
21:22:32.590	3.92	-0.272343	237.311	122.449
21:22:32.600	3.93	-0.177402	237.12	122.449
21:22:32.610	3.94	-0.143481	236.934	122.449
21:22:32.620	3.95	-0.15635	236.752	122.449
21:22:32.630	3.96	-0.17308	236.575	122.449
21:22:32.640	3.97	-0.220243	236.402	122.449
21:22:32.650	3.98	-0.22832	236.233	122.449
21:22:32.660	3.99	-0.2203	236.068	122.449
21:22:32.670	4	-0.23677	235.906	122.449
21:22:32.680	4.01	-0.25244	235.748	122.449
21:22:32.689	4.02	-0.212816	235.593	122.449
21:22:32.700	4.03	-0.150642	235.44	122.449
21:22:32.710	4.04	-0.103683	235.29	122.449
21:22:32.720	4.05	-0.0462488	235.143	122.449
21:22:32.729	4.06	0.010144	234.998	122.449
21:22:32.740	4.07	0.0490525	234.855	122.449
21:22:32.750	4.08	0.0639766	234.713	122.449
21:22:32.760	4.09	0.0741645	234.574	122.449
21:22:32.770	4.1	0.0726488	234.436	122.449
21:22:32.780	4.11	0.0506762	234.299	122.449
21:22:32.790	4.12	0.0506835	234.163	122.449
21:22:32.800	4.13	0.0717855	234.029	122.449
21:22:32.810	4.14	0.100684	233.895	122.449
21:22:32.820	4.15	0.118413	233.762	122.449
21:22:32.830	4.16	0.132377	233.63	122.449
21:22:32.840	4.17	0.159182	233.499	315.789
21:22:32.850	4.18	0.150856	233.367	315.789
21:22:32.860	4.19	0.0981149	233.237	315.789
21:22:32.870	4.2	0.0445922	233.106	315.789
21:22:32.880	4.21	-0.0087855	232.976	315.789
21:22:32.890	4.22	-0.0147197	232.846	315.789
21:22:32.900	4.23	-0.0291732	232.716	315.789
21:22:32.910	4.24	-0.064277	232.585	315.789
21:22:32.920	4.25	-0.0855621	232.455	315.789
21:22:32.930	4.26	-0.0925014	232.325	315.789
21:22:32.940	4.27	-0.0781936	232.194	315.789
21:22:32.950	4.28	-0.0496683	232.063	315.789
21:22:32.960	4.29	-0.0232311	231.932	315.789
21:22:32.970	4.3	0.0573441	231.8	315.789
21:22:32.980	4.31	0.0628544	231.669	315.789
21:22:32.990	4.32	0.133786	231.537	315.789
21:22:33.000	4.33	0.199127	231.404	315.789
21:22:33.010	4.34	0.257041	231.271	315.789
21:22:33.020	4.35	0.285802	231.138	315.789
21:22:33.030	4.36	0.313674	231.005	260.87
21:22:33.040	4.37	0.252456	230.872	260.87
21:22:33.050	4.38	0.246295	230.738	260.87
21:22:33.060	4.39	0.147002	230.604	260.87
21:22:33.070	4.4	0.0371053	230.47	260.87
21:22:33.080	4.41	-0.0757721	230.336	260.87
21:22:33.090	4.42	-0.123059	230.201	260.87
21:22:33.100	4.43	-0.163613	230.067	260.87
21:22:33.110	4.44	-0.179406	229.932	260.87
21:22:33.120	4.45	-0.206622	229.798	260.87
21:22:33.130	4.46	-0.202772	229.664	260.87
21:22:33.140	4.47	-0.190396	229.529	260.87
21:22:33.150	4.48	-0.18758	229.395	260.87
21:22:33.160	4.49	-0.187234	229.261	260.87
21:22:33.170	4.5	-0.175319	229.128	260.87
21:22:33.180	4.51	-0.139377	228.994	260.87
21:22:33.190	4.52	-0.119633	228.861	260.87
21:22:33.200	4.53	-0.0848632	228.728	260.87
21:22:33.210	4.54	-0.0298832	228.596	260.87
21:22:33.220	4.55	0.0325876	228.464	260.87
21:22:33.230	4.56	0.0758525	228.333	260.87
21:22:33.240	4.57	0.0863476	228.202	260.87
21:22:33.250	4.58	0.144173	228.072	260.87
21:22:33.260	4.59	0.200539	227.943	107.143
21:22:33.270	4.6	0.193032	227.814	107.143
21:22:33.280	4.61	0.146683	227.686	107.143
21:22:33.290	4.62	0.0728095	227.559	107.143
21:22:33.300	4.63	0.0512254	227.433	107.143
21:22:33.310	4.64	0.0601652	227.308	107.143
21:22:33.320	4.65	0.04281	227.184	107.143
21:22:33.330	4.66	0.0140963	227.062	107.143
21:22:33.340	4.67	0.000726888	226.94	107.143
21:22:33.350	4.68	-0.0220758	226.82	107.143
21:22:33.360	4.69	-0.0409487	226.701	107.143
21:22:33.370	4.7	-0.0556633	226.583	107.143
21:22:33.380	4.71	-0.0566218	226.467	107.143
21:22:33.390	4.72	-0.0530508	226.352	107.143
21:22:33.400	4.73	-0.0426654	226.239	107.143
21:22:33.410	4.74	-0.0344784	226.128	107.143
21:22:33.420	4.75	-0.018949	226.018	107.143
21:22:33.430	4.76	0.00852877	225.91	107.143
21:22:33.440	4.77	0.0221133	225.803	107.143
21:22:33.450	4.78	0.025733	225.698	107.143
21:22:33.460	4.79	-0.014016	225.595	107.143
21:22:33.470	4.8	-0.07254	225.494	107.143
21:22:33.480	4.81	-0.110965	225.395	107.143
21:22:33.490	4.82	-0.123392	225.298	107.143
21:22:33.500	4.83	-0.136737	225.202	107.143
21:22:33.510	4.84	-0.129569	225.109	107.143
21:22:33.520	4.85	-0.116655	225.017	107.143
21:22:33.530	4.86	-0.117734	224.927	107.143
21:22:33.540	4.87	-0.13998	224.839	107.143
21:22:33.550	4.88	-0.170367	224.753	107.143
21:22:33.560	4.89	-0.213668	224.669	107.143
21:22:33.570	4.9	-0.263173	224.587	107.143
21:22:33.580	4.91	-0.289856	224.507	107.143
21:22:33.590	4.92	-0.298075	224.429	107.143
21:22:33.600	4.93	-0.295166	224.353	107.143
21:22:33.610	4.94	-0.271599	224.278	107.143
21:22:33.620	4.95	-0.222774	224.206	107.143
21:22:33.630	4.96	-0.209903	224.135	107.143
21:22:33.640	4.97	-0.267685	224.066	107.143
21:22:33.650	4.98	-0.304785	223.998	107.143
21:22:33.660	4.99	-0.234087	223.932	107.143
21:22:33.670	5	-0.158133	223.868	107.143
21:22:33.680	5.01	-0.118535	223.806	107.143
21:22:33.690	5.02	-0.0265604	223.745	107.143
21:22:33.700	5.03	0.0205616	223.685	107.143
21:22:33.710	5.04	-0.0012934	223.627	107.143
21:22:33.720	5.05	-0.044177	223.57	107.143
21:22:33.730	5.06	-0.0798596	223.515	107.143
21:22:33.740	5.07	-0.0613487	223.461	107.143
21:22:33.750	5.08	0.00218913	223.408	107.143
21:22:33.760	5.09	0.0602871	223.356	107.143
21:22:33.770	5.1	0.111534	223.306	107.143
21:22:33.780	5.11	0.1654	223.257	107.143
21:22:33.790	5.12	0.22424	223.209	107.143
21:22:33.800	5.13	0.274081	223.162	107.143
21:22:33.810	5.14	0.291837	223.117	107.143
21:22:33.820	5.15	0.325619	223.072	193.548
21:22:33.830	5.16	0.287251	223.028	193.548
21:22:33.840	5.17	0.269819	222.986	193.548
21:22:33.850	5.18	0.267741	222.944	193.548
21:22:33.860	5.19	0.265472	222.903	193.548
21:22:33.870	5.2	0.228447	222.863	193.548
21:22:33.880	5.21	0.182382	222.824	193.548
21:22:33.890	5.22	0.12778	222.785	193.548
21:22:33.900	5.23	0.0568457	222.747	193.548
21:22:33.910	5.24	0.0021693	222.709	193.548
21:22:33.920	5.25	-0.0202956	222.672	193.548
21:22:33.930	5.26	-0.0106969	222.635	193.548
21:22:33.940	5.27	-0.00667973	222.598	193.548
21:22:33.950	5.28	-0.00558456	222.561	193.548
21:22:33.960	5.29	0.0131998	222.525	193.548
21:22:33.970	5.3	0.0343465	222.488	193.548
21:22:33.980	5.31	0.0385645	222.45	193.548
21:22:33.990	5.32	0.0424542	222.413	193.548
21:22:34.000	5.33	0.0776848	222.374	193.548
21:22:34.010	5.34	0.091815	222.335	193.548
21:22:34.020	5.35	0.0693139	222.295	193.548
21:22:34.030	5.36	0.0632396	222.254	193.548
21:22:34.040	5.37	0.0948309	222.211	193.548
21:22:34.050	5.38	0.0959877	222.168	193.548
21:22:34.060	5.39	0.087241	222.123	193.548
21:22:34.070	5.4	0.068563	222.076	193.548
21:22:34.080	5.41	0.0577282	222.027	193.548
21:22:34.090	5.42	0.0639881	221.977	193.548
21:22:34.100	5.43	0.103633	221.924	193.548
21:22:34.110	5.44	0.128264	221.87	193.548
21:22:34.120	5.45	0.153646	221.813	193.548
21:22:34.130	5.46	0.17299	221.755	115.385
21:22:34.140	5.47	0.145694	221.694	115.385
21:22:34.150	5.48	0.096986	221.63	115.385
21:22:34.160	5.49	0.0984101	221.564	115.385
21:22:34.170	5.5	0.0498362	221.496	115.385
21:22:34.180	5.51	0.0147967	221.425	115.385
21:22:34.190	5.52	0.0245083	221.352	115.385
21:22:34.200	5.53	0.067151	221.276	115.385
21:22:34.210	5.54	0.0451525	221.197	115.385
21:22:34.220	5.55	0.0143129	221.117	115.385
21:22:34.230	5.56	0.0270887	221.033	115.385
21:22:34.240	5.57	0.0167651	220.948	115.385
21:22:34.250	5.58	-0.0202526	220.86	115.385
21:22:34.260	5.59	-0.0528512	220.77	115.385
21:22:34.270	5.6	-0.0582607	220.678	115.385
21:22:34.280	5.61	-0.0658113	220.584	115.385
21:22:34.290	5.62	-0.0628293	220.488	115.385
21:22:34.300	5.63	-0.0631554	220.39	115.385
21:22:34.310	5.64	-0.0551586	220.29	115.385
21:22:34.320	5.65	-0.0504181	220.189	115.385
21:22:34.330	5.66	-0.0661877	220.086	115.385
21:22:34.340	5.67	-0.0411043	219.982	115.385
21:22:34.350	5.68	-0.026404	219.876	115.385
21:22:34.360	5.69	-0.0449329	219.77	115.385
21:22:34.370	5.7	-0.0733999	219.662	115.385
21:22:34.380	5.71	-0.0605961	219.553	115.385
21:22:34.390	5.72	-0.0381762	219.443	115.385
21:22:34.400	5.73	-0.0405024	219.333	115.385
21:22:34.410	5.74	-0.0557942	219.222	115.385
21:22:34.420	5.75	-0.0454014	219.111	115.385
21:22:34.430	5.76	-0.0384331	218.999	115.385
21:22:34.440	5.77	-0.0572725	218.888	115.385
21:22:34.450	5.78	-0.0730916	218.776	115.385
21:22:34.460	5.79	-0.0624702	218.664	115.385
21:22:34.470	5.8	-0.0480352	218.553	115.385
21:22:34.480	5.81	-0.0379362	218.441	115.385
21:22:34.490	5.82	-0.0322292	218.331	115.385
21:22:34.500	5.83	-0.0289641	218.22	115.385
21:22:34.510	5.84	-0.0362756	218.111	115.385
21:22:34.520	5.85	-0.0590832	218.002	115.385
21:22:34.530	5.86	-0.0763915	217.894	115.385
21:22:34.540	5.87	-0.0615896	217.787	115.385
21:22:34.550	5.88	-0.0496045	217.681	115.385
21:22:34.560	5.89	-0.0569548	217.576	115.385
21:22:34.570	5.9	-0.063713	217.473	115.385
21:22:34.580	5.91	-0.0856995	217.371	115.385
21:22:34.590	5.92	-0.103368	217.27	115.385
21:22:34.600	5.93	-0.0914368	217.171	115.385
21:22:34.610	5.94	-0.0407142	217.073	115.385
21:22:34.620	5.95	0.0262622	216.977	115.385
21:22:34.630	5.96	0.0777908	216.882	115.385
21:22:34.640	5.97	0.154383	216.789	115.385
21:22:34.650	5.98	0.199165	216.698	171.429
21:22:34.660	5.99	0.176384	216.609	171.429
21:22:34.670	6	0.160328	216.521	171.429
21:22:34.680	6.01	0.119942	216.435	171.429
21:22:34.690	6.02	0.0635451	216.351	171.429
21:22:34.700	6.03	0.00794727	216.268	171.429
21:22:34.710	6.04	-0.0218787	216.188	171.429
21:22:34.720	6.05	-0.03642	216.109	171.429
21:22:34.730	6.06	-0.0367619	216.032	171.429
21:22:34.740	6.07	-0.0291486	215.957	171.429
21:22:34.750	6.08	-0.0386862	215.883	171.429
21:22:34.760	6.09	-0.060422	215.811	171.429
21:22:34.770	6.1	-0.0596568	215.741	171.429
21:22:34.780	6.11	-0.0528108	215.673	171.429
21:22:34.790	6.12	-0.0590149	215.606	171.429
21:22:34.800	6.13	-0.0721058	215.541	171.429
21:22:34.810	6.14	-0.0727969	215.477	171.429
21:22:34.820	6.15	-0.0603133	215.415	171.429
21:22:34.830	6.16	-0.0664963	215.355	171.429
21:22:34.840	6.17	-0.0747404	215.296	171.429
21:22:34.850	6.18	-0.0654835	215.238	171.429
21:22:34.860	6.19	-0.0605515	215.182	171.429
21:22:34.870	6.2	-0.0622335	215.127	171.429
21:22:34.880	6.21	-0.0606265	215.074	171.429
21:22:34.890	6.22	-0.0476199	215.021	171.429
21:22:34.900	6.23	-0.0390176	214.97	171.429
21:22:34.910	6.24	-0.0189595	214.92	171.429
21:22:34.920	6.25	0.00414377	214.87	171.429
21:22:34.930	6.26	0.0417286	214.822	171.429
21:22:34.940	6.27	0.0681091	214.774	171.429
21:22:34.950	6.28	0.0930628	214.726	171.429
21:22:34.960	6.29	0.111525	214.679	171.429
21:22:34.970	6.3	0.12412	214.632	171.429
21:22:34.980	6.31	0.122764	214.585	171.429
21:22:34.990	6.32	0.125432	214.538	171.429
21:22:35.000	6.33	0.137699	214.49	352.941
21:22:35.010	6.34	0.119342	214.443	352.941
21:22:35.020	6.35	0.0958561	214.395	352.941
21:22:35.030	6.36	0.0792729	214.347	352.941
21:22:35.040	6.37	0.0693584	214.298	352.941
21:22:35.050	6.38	0.0697591	214.248	352.941
21:22:35.060	6.39	0.0847311	214.197	352.941
21:22:35.070	6.4	0.106888	214.145	352.941
21:22:35.080	6.41	0.118791	214.093	352.941
21:22:35.090	6.42	0.119711	214.039	352.941
21:22:35.100	6.43	0.119157	213.984	352.941
21:22:35.110	6.44	0.111	213.927	352.941
21:22:35.120	6.45	0.103779	213.869	352.941
21:22:35.130	6.46	0.094836	213.81	352.941
21:22:35.140	6.47	0.102639	213.749	352.941
21:22:35.150	6.48	0.124303	213.687	352.941
21:22:35.160	6.49	0.160456	213.623	352.941
21:22:35.170	6.5	0.180118	213.557	352.941
21:22:35.180	6.51	0.175717	213.489	352.941
21:22:35.190	6.52	0.138394	213.42	352.941
21:22:35.200	6.53	0.0891803	213.349	352.941
21:22:35.210	6.54	0.0190653	213.276	352.941
21:22:35.220	6.55	-0.02663	213.202	352.941
21:22:35.230	6.56	-0.0646708	213.126	352.941
21:22:35.240	6.57	-0.0746772	213.048	352.941
21:22:35.250	6.58	-0.0680301	212.969	352.941
21:22:35.260	6.59	-0.0418562	212.888	352.941
21:22:35.270	6.6	-0.00914912	212.805	352.941
21:22:35.280	6.61	0.0131229	212.721	352.941
21:22:35.290	6.62	0.0344335	212.635	352.941
21:22:35.300	6.63	0.0558836	212.548	352.941
21:22:35.310	6.64	0.0854066	212.459	352.941
21:22:35.320	6.65	0.114558	212.369	352.941
21:22:35.330	6.66	0.132466	212.277	352.941
21:22:35.340	6.67	0.168351	212.184	86.9565
21:22:35.350	6.68	0.163105	212.089	86.9565
21:22:35.360	6.69	0.106307	211.993	86.9565
21:22:35.370	6.7	0.125761	211.895	86.9565
21:22:35.380	6.71	0.118055	211.797	86.9565
21:22:35.390	6.72	0.0823991	211.697	86.9565
21:22:35.400	6.73	0.106113	211.596	86.9565
21:22:35.410	6.74	0.125031	211.495	86.9565
21:22:35.420	6.75	0.0990061	211.392	86.9565
21:22:35.430	6.76	0.0518575	211.288	86.9565
21:22:35.440	6.77	0.0155852	211.184	86.9565
21:22:35.450	6.78	-0.0230087	211.079	86.9565
21:22:35.460	6.79	-0.0566984	210.974	86.9565
21:22:35.470	6.8	-0.0598868	210.867	86.9565
21:22:35.480	6.81	-0.053526	210.76	86.9565
21:22:35.490	6.82	-0.0589205	210.653	86.9565
21:22:35.500	6.83	-0.0973127	210.546	86.9565
21:22:35.510	6.84	-0.129636	210.438	86.9565
21:22:35.520	6.85	-0.162521	210.329	86.9565
21:22:35.530	6.86	-0.190213	210.221	86.9565
21:22:35.540	6.87	-0.199551	210.112	86.9565
21:22:35.550	6.88	-0.196017	210.003	86.9565
21:22:35.560	6.89	-0.191566	209.894	86.9565
21:22:35.570	6.9	-0.179566	209.785	86.9565
21:22:35.580	6.91	-0.176125	209.676	86.9565
21:22:35.590	6.92	-0.185218	209.567	86.9565
21:22:35.600	6.93	-0.193933	209.459	86.9565
21:22:35.610	6.94	-0.172691	209.35	86.9565
21:22:35.620	6.95	-0.153801	209.242	86.9565
21:22:35.630	6.96	-0.143	209.134	86.9565
21:22:35.640	6.97	-0.116708	209.026	86.9565
21:22:35.650	6.98	-0.0832392	208.919	86.9565
21:22:35.660	6.99	-0.0629672	208.812	86.9565
21:22:35.670	7	-0.0603631	208.706	86.9565
21:22:35.680	7.01	-0.0532897	208.6	86.9565
21:22:35.690	7.02	-0.0424511	208.494	86.9565
21:22:35.700	7.03	-0.0272559	208.389	86.9565
21:22:35.710	7.04	-0.0369346	208.285	86.9565
21:22:35.720	7.05	-0.0596022	208.182	86.9565
21:22:35.730	7.06	-0.0848458	208.079	86.9565
21:22:35.740	7.07	-0.0950907	207.977	86.9565
21:22:35.750	7.08	-0.0975834	207.876	86.9565
21:22:35.760	7.09	-0.0839113	207.776	86.9565
21:22:35.770	7.1	-0.0630899	207.676	86.9565
21:22:35.780	7.11	-0.042956	207.578	86.9565
21:22:35.790	7.12	-0.0201218	207.48	86.9565
21:22:35.800	7.13	-0.0240712	207.384	86.9565
21:22:35.810	7.14	-0.0233594	207.288	86.9565
21:22:35.820	7.15	-0.0405691	207.194	86.9565
21:22:35.830	7.16	-0.041643	207.1	86.9565
21:22:35.840	7.17	-0.0355786	207.008	86.9565
21:22:35.850	7.18	-0.0282524	206.917	86.9565
21:22:35.860	7.19	-0.0147372	206.827	86.9565
21:22:35.870	7.2	0.00224112	206.737	86.9565
21:22:35.880	7.21	0.012825	206.649	86.9565
21:22:35.890	7.22	0.0296085	206.562	86.9565
21:22:35.900	7.23	0.0396053	206.477	86.9565
21:22:35.910	7.24	0.0415045	206.392	86.9565
21:22:35.920	7.25	0.0447107	206.308	86.9565
21:22:35.930	7.26	0.0547354	206.226	86.9565
21:22:35.940	7.27	0.0729239	206.144	86.9565
21:22:35.950	7.28	0.103729	206.064	86.9565
21:22:35.960	7.29	0.114593	205.984	86.9565
21:22:35.970	7.3	0.110148	205.906	86.9565
21:22:35.980	7.31	0.101294	205.829	86.9565
21:22:35.990	7.32	0.109268	205.753	86.9565
21:22:36.000	7.33	0.124995	205.677	86.9565
21:22:36.010	7.34	0.13487	205.603	86.9565
21:22:36.020	7.35	0.137279	205.53	86.9565
21:22:36.030	7.36	0.13924	205.458	81.0811
21:22:36.040	7.37	0.133914	205.386	81.0811
21:22:36.050	7.38	0.127021	205.316	81.0811
21:22:36.060	7.39	0.13089	205.247	81.0811
21:22:36.070	7.4	0.104971	205.178	81.0811
21:22:36.080	7.41	0.063976	205.11	81.0811
21:22:36.090	7.42	0.0230243	205.044	81.0811
21:22:36.100	7.43	-0.0368221	204.978	81.0811
21:22:36.110	7.44	-0.0928953	204.913	81.0811
21:22:36.120	7.45	-0.157856	204.849	81.0811
21:22:36.130	7.46	-0.208625	204.786	81.0811
21:22:36.140	7.47	-0.248871	204.723	81.0811
21:22:36.150	7.48	-0.254557	204.661	81.0811
21:22:36.160	7.49	-0.220242	204.601	81.0811
21:22:36.170	7.5	-0.252923	204.541	81.0811
21:22:36.180	7.51	-0.298617	204.481	81.0811
21:22:36.190	7.52	-0.333046	204.423	81.0811
21:22:36.200	7.53	-0.392536	204.365	81.0811
21:22:36.210	7.54	-0.415038	204.308	81.0811
21:22:36.220	7.55	-0.393717	204.252	81.0811
21:22:36.230	7.56	-0.334878	204.196	81.0811
21:22:36.240	7.57	-0.208551	204.141	81.0811
21:22:36.250	7.58	-0.0598341	204.087	81.0811
21:22:36.260	7.59	-0.160275	204.034	81.0811
21:22:36.270	7.6	-0.168351	203.981	81.0811
21:22:36.280	7.61	-0.160407	203.93	81.0811
21:22:36.290	7.62	-0.179366	203.879	81.0811
21:22:36.300	7.63	-0.142716	203.828	81.0811
21:22:36.310	7.64	-0.0812754	203.779	81.0811
21:22:36.320	7.65	-0.0175875	203.73	81.0811
21:22:36.330	7.66	0.0319552	203.682	81.0811
21:22:36.340	7.67	0.0802649	203.634	81.0811
21:22:36.350	7.68	0.0867325	203.588	81.0811
21:22:36.360	7.69	0.066287	203.542	81.0811
21:22:36.370	7.7	0.0931251	203.496	81.0811
21:22:36.380	7.71	0.0896817	203.452	81.0811
21:22:36.390	7.72	0.0636794	203.408	81.0811
21:22:36.400	7.73	0.0541593	203.365	81.0811
21:22:36.410	7.74	0.0797236	203.322	81.0811
21:22:36.420	7.75	0.0877834	203.281	81.0811
21:22:36.430	7.76	0.111584	203.24	81.0811
21:22:36.440	7.77	0.107078	203.199	81.0811
21:22:36.450	7.78	0.0765768	203.159	81.0811
21:22:36.460	7.79	0.027927	203.12	81.0811
21:22:36.470	7.8	0.0285385	203.082	81.0811
21:22:36.480	7.81	0.00127498	203.045	81.0811
21:22:36.490	7.82	0.00432139	203.008	81.0811
21:22:36.500	7.83	0.0128528	202.972	81.0811
21:22:36.510	7.84	0.00378744	202.937	81.0811
21:22:36.520	7.85	-0.00992003	202.903	81.0811
21:22:36.530	7.86	-0.0193112	202.87	81.0811
21:22:36.540	7.87	-0.0235725	202.838	81.0811
21:22:36.550	7.88	-0.037589	202.807	81.0811
21:22:36.560	7.89	-0.0290278	202.777	81.0811
21:22:36.570	7.9	-0.00662822	202.748	81.0811
21:22:36.580	7.91	0.00797253	202.72	81.0811
21:22:36.590	7.92	0.00558561	202.693	81.0811
21:22:36.600	7.93	0.00550925	202.668	81.0811
21:22:36.610	7.94	0.00985683	202.643	81.0811
21:22:36.620	7.95	0.0197341	202.62	81.0811
21:22:36.630	7.96	0.0430155	202.598	81.0811
21:22:36.640	7.97	0.0687093	202.577	81.0811
21:22:36.650	7.98	0.0983765	202.558	81.0811
21:22:36.660	7.99	0.123775	202.539	81.0811
21:22:36.670	8	0.137903	202.522	81.0811
21:22:36.680	8.01	0.156321	202.506	81.0811
21:22:36.690	8.02	0.16842	202.491	81.0811
21:22:36.699	8.03	0.166968	202.478	81.0811
21:22:36.709	8.04	0.15137	202.465	81.0811
21:22:36.720	8.05	0.139896	202.453	81.0811
21:22:36.730	8.06	0.15061	202.443	81.0811
21:22:36.740	8.07	0.168221	202.434	81.0811
21:22:36.750	8.08	0.195232	202.425	81.0811
21:22:36.760	8.09	0.220638	202.418	81.0811
21:22:36.770	8.1	0.228865	202.412	230.769
21:22:36.779	8.11	0.201397	202.406	230.769
21:22:36.789	8.12	0.214016	202.402	230.769
21:22:36.800	8.13	0.199149	202.398	230.769
21:22:36.810	8.14	0.190258	202.396	230.769
21:22:36.820	8.15	0.163447	202.394	230.769
21:22:36.830	8.16	0.0960125	202.393	230.769
21:22:36.840	8.17	0.0899876	202.393	230.769
21:22:36.850	8.18	0.0622241	202.394	230.769
21:22:36.859	8.19	0.0269018	202.395	230.769
21:22:36.870	8.2	-0.00166233	202.397	230.769
21:22:36.880	8.21	-0.0370037	202.4	230.769
21:22:36.890	8.22	-0.0830578	202.403	230.769
21:22:36.900	8.23	-0.0896507	202.407	230.769
21:22:36.910	8.24	-0.0788743	202.412	230.769
21:22:36.920	8.25	-0.0551688	202.417	230.769
21:22:36.930	8.26	-0.0251716	202.423	230.769
21:22:36.940	8.27	0.000869657	202.43	230.769
21:22:36.950	8.28	0.0193754	202.436	230.769
21:22:36.960	8.29	0.0311483	202.444	230.769
21:22:36.970	8.3	0.039826	202.452	230.769
21:22:36.980	8.31	0.0409675	202.46	230.769
21:22:36.990	8.32	0.0504989	202.469	230.769
21:22:37.000	8.33	0.0719493	202.478	230.769
21:22:37.010	8.34	0.106686	202.487	230.769
21:22:37.020	8.35	0.142422	202.497	230.769
21:22:37.030	8.36	0.153035	202.507	666.667
21:22:37.040	8.37	0.11604	202.518	666.667
21:22:37.050	8.38	0.0967967	202.528	666.667
21:22:37.060	8.39	0.163258	202.539	666.667
21:22:37.070	8.4	0.195585	202.55	666.667
21:22:37.080	8.41	0.218084	202.561	666.667
21:22:37.090	8.42	0.256254	202.573	666.667
21:22:37.100	8.43	0.286268	202.584	666.667
21:22:37.110	8.44	0.302785	202.595	666.667
21:22:37.120	8.45	0.309912	202.606	98.3607
21:22:37.130	8.46	0.284674	202.617	98.3607
21:22:37.140	8.47	0.237986	202.628	98.3607
21:22:37.150	8.48	0.187037	202.639	98.3607
21:22:37.160	8.49	0.130591	202.649	98.3607
21:22:37.170	8.5	0.0795164	202.66	98.3607
21:22:37.180	8.51	0.0785789	202.67	98.3607
21:22:37.190	8.52	0.063083	202.679	98.3607
21:22:37.200	8.53	0.0530912	202.689	98.3607
21:22:37.210	8.54	0.0681282	202.698	98.3607
21:22:37.220	8.55	0.00374493	202.707	98.3607
21:22:37.230	8.56	-0.050366	202.716	98.3607
21:22:37.240	8.57	-0.098147	202.724	98.3607
21:22:37.250	8.58	-0.143394	202.732	98.3607
21:22:37.260	8.59	-0.16948	202.74	98.3607
21:22:37.270	8.6	-0.166935	202.747	98.3607
21:22:37.280	8.61	-0.160219	202.754	98.3607
21:22:37.290	8.62	-0.149402	202.762	98.3607
21:22:37.300	8.63	-0.145099	202.769	98.3607
21:22:37.310	8.64	-0.153813	202.775	98.3607
21:22:37.320	8.65	-0.161865	202.782	98.3607
21:22:37.330	8.66	-0.185703	202.788	98.3607
21:22:37.340	8.67	-0.217	202.795	98.3607
21:22:37.350	8.68	-0.233979	202.801	98.3607
21:22:37.360	8.69	-0.204554	202.808	98.3607
21:22:37.370	8.7	-0.208199	202.814	98.3607
21:22:37.380	8.71	-0.215971	202.82	98.3607
21:22:37.390	8.72	-0.218029	202.827	98.3607
21:22:37.400	8.73	-0.181922	202.833	98.3607
21:22:37.410	8.74	-0.140876	202.839	98.3607
21:22:37.420	8.75	-0.113128	202.846	98.3607
21:22:37.430	8.76	-0.0936229	202.853	98.3607
21:22:37.440	8.77	-0.120589	202.86	98.3607
21:22:37.450	8.78	-0.147655	202.867	98.3607
21:22:37.460	8.79	-0.176252	202.875	98.3607
21:22:37.470	8.8	-0.1865	202.883	98.3607
21:22:37.480	8.81	-0.183543	202.892	98.3607
21:22:37.490	8.82	-0.155832	202.901	98.3607
21:22:37.500	8.83	-0.123146	202.911	98.3607
21:22:37.510	8.84	-0.12619	202.921	98.3607
21:22:37.520	8.85	-0.107008	202.933	98.3607
21:22:37.530	8.86	-0.101364	202.944	98.3607
21:22:37.540	8.87	-0.136008	202.957	98.3607
21:22:37.550	8.88	-0.130222	202.97	98.3607
21:22:37.560	8.89	-0.152846	202.985	98.3607
21:22:37.570	8.9	-0.162806	203	98.3607
21:22:37.580	8.91	-0.157331	203.017	98.3607
21:22:37.590	8.92	-0.151886	203.034	98.3607
21:22:37.600	8.93	-0.126236	203.052	98.3607
21:22:37.610	8.94	-0.0638631	203.071	98.3607
21:22:37.620	8.95	-0.0169639	203.092	98.3607
21:22:37.630	8.96	0.0438376	203.113	98.3607
21:22:37.640	8.97	0.071613	203.135	98.3607
21:22:37.650	8.98	0.103722	203.157	98.3607
21:22:37.660	8.99	0.124881	203.181	98.3607
21:22:37.670	9	0.157368	203.205	98.3607
21:22:37.680	9.01	0.163888	203.23	98.3607
21:22:37.690	9.02	0.1502	203.256	98.3607
21:22:37.700	9.03	0.157615	203.282	98.3607
21:22:37.710	9.04	0.167798	203.309	98.3607
21:22:37.720	9.05	0.192072	203.336	98.3607
21:22:37.730	9.06	0.197886	203.363	136.364
21:22:37.740	9.07	0.197053	203.391	136.364
21:22:37.750	9.08	0.190348	203.419	136.364
21:22:37.760	9.09	0.177546	203.448	136.364
21:22:37.770	9.1	0.171508	203.477	136.364
21:22:37.780	9.11	0.166173	203.505	136.364
21:22:37.790	9.12	0.165818	203.534	136.364
21:22:37.800	9.13	0.164012	203.564	136.364
21:22:37.810	9.14	0.189506	203.593	136.364
21:22:37.820	9.15	0.192691	203.622	136.364
21:22:37.830	9.16	0.130941	203.651	136.364
21:22:37.840	9.17	0.0105803	203.679	136.364
21:22:37.850	9.18	0.0494803	203.708	136.364
21:22:37.860	9.19	0.0664549	203.737	136.364
21:22:37.870	9.2	0.0289182	203.765	136.364
21:22:37.880	9.21	0.0248881	203.793	136.364
21:22:37.890	9.22	-0.0269611	203.821	136.364
21:22:37.900	9.23	-0.175338	203.848	136.364
21:22:37.910	9.24	-0.128319	203.875	136.364
21:22:37.920	9.25	-0.1494	203.902	136.364
21:22:37.930	9.26	-0.184897	203.929	136.364
21:22:37.940	9.27	-0.141276	203.955	136.364
21:22:37.950	9.28	-0.132582	203.98	136.364
21:22:37.960	9.29	-0.125579	204.006	136.364
21:22:37.970	9.3	-0.118762	204.031	136.364
21:22:37.980	9.31	-0.11467	204.055	136.364
21:22:37.990	9.32	-0.116213	204.079	136.364
21:22:38.000	9.33	-0.138613	204.103	136.364
21:22:38.010	9.34	-0.161284	204.127	136.364
21:22:38.020	9.35	-0.17028	204.15	136.364
21:22:38.030	9.36	-0.16853	204.172	136.364
21:22:38.040	9.37	-0.158624	204.195	136.364
21:22:38.050	9.38	-0.141633	204.217	136.364
21:22:38.060	9.39	-0.116688	204.238	136.364
21:22:38.070	9.4	-0.0769456	204.26	136.364
21:22:38.080	9.41	-0.0488328	204.281	136.364
21:22:38.090	9.42	-0.0212937	204.301	136.364
21:22:38.100	9.43	-0.00386027	204.321	136.364
21:22:38.110	9.44	0.0379745	204.341	136.364
21:22:38.120	9.45	0.0746663	204.361	136.364
21:22:38.130	9.46	0.114603	204.38	136.364
21:22:38.140	9.47	0.151556	204.399	136.364
21:22:38.150	9.48	0.193989	204.417	136.364
21:22:38.160	9.49	0.213951	204.435	136.364
21:22:38.170	9.5	0.216887	204.453	193.548
21:22:38.180	9.51	0.192549	204.47	193.548
21:22:38.190	9.52	0.123681	204.487	193.548
21:22:38.200	9.53	0.0719122	204.503	193.548
21:22:38.210	9.54	0.0119343	204.519	193.548
21:22:38.220	9.55	-0.0244633	204.535	193.548
21:22:38.230	9.56	-0.0586395	204.55	193.548
21:22:38.240	9.57	-0.119092	204.565	193.548
21:22:38.250	9.58	-0.127776	204.579	193.548
21:22:38.260	9.59	-0.104247	204.593	193.548
21:22:38.270	9.6	-0.0864538	204.606	193.548
21:22:38.280	9.61	-0.0779122	204.619	193.548
21:22:38.290	9.62	-0.0885541	204.632	193.548
21:22:38.300	9.63	-0.083131	204.644	193.548
21:22:38.310	9.64	-0.0880132	204.656	193.548
21:22:38.320	9.65	-0.110889	204.668	193.548
21:22:38.330	9.66	-0.139706	204.679	193.548
21:22:38.340	9.67	-0.158689	204.689	193.548
21:22:38.350	9.68	-0.169931	204.7	193.548
21:22:38.360	9.69	-0.139861	204.71	193.548
21:22:38.370	9.7	-0.0897712	204.719	193.548
21:22:38.380	9.71	-0.0497883	204.729	193.548
21:22:38.390	9.72	0.0025535	204.737	193.548
21:22:38.400	9.73	0.0390283	204.746	193.548
21:22:38.410	9.74	0.0521301	204.754	193.548
21:22:38.420	9.75	0.0467424	204.762	193.548
21:22:38.430	9.76	0.0447487	204.769	193.548
21:22:38.440	9.77	0.0770293	204.777	193.548
21:22:38.450	9.78	0.117446	204.783	193.548
21:22:38.460	9.79	0.128895	204.79	193.548
21:22:38.470	9.8	0.13571	204.796	193.548
21:22:38.480	9.81	0.14526	204.802	166.667
21:22:38.490	9.82	0.138437	204.808	166.667
21:22:38.500	9.83	0.108051	204.814	166.667
21:22:38.510	9.84	0.0811603	204.819	166.667
21:22:38.520	9.85	0.0653114	204.824	166.667
21:22:38.530	9.86	0.0519712	204.829	166.667
21:22:38.540	9.87	0.0409844	204.834	166.667
21:22:38.550	9.88	0.0376116	204.838	166.667
21:22:38.560	9.89	0.0298922	204.842	166.667
21:22:38.570	9.9	0.060735	204.846	166.667
21:22:38.580	9.91	0.062854	204.85	166.667
21:22:38.590	9.92	0.0755455	204.854	166.667
21:22:38.600	9.93	0.0580471	204.858	166.667
21:22:38.610	9.94	0.0539558	204.861	166.667
21:22:38.620	9.95	0.0318593	204.864	166.667
21:22:38.630	9.96	0.0210473	204.868	166.667
21:22:38.640	9.97	0.0157353	204.87	166.667
21:22:38.650	9.98	-0.0151632	204.873	166.667
21:22:38.660	9.99	0.0136232	204.876	166.667
21:22:38.670	10	0.0327349	204.878	166.667
21:22:38.680	10.01	0.0162971	204.88	166.667
21:22:38.690	10.02	-0.0110063	204.882	166.667
21:22:38.700	10.03	-0.0150676	204.884	166.667
21:22:38.710	10.04	-0.0268564	204.885	166.667
21:22:38.720	10.05	-0.0400374	204.886	166.667
21:22:38.730	10.06	-0.040936	204.888	166.667
21:22:38.740	10.07	-0.0288988	204.889	166.667
21:22:38.750	10.08	-0.029096	204.889	166.667
21:22:38.760	10.09	-0.0472715	204.89	166.667
21:22:38.770	10.1	-0.0500349	204.89	166.667
21:22:38.780	10.11	-0.0380525	204.891	166.667
21:22:38.790	10.12	-0.00821413	204.891	166.667
21:22:38.800	10.13	0.0242941	204.891	166.667
21:22:38.810	10.14	0.0760989	204.89	166.667
21:22:38.820	10.15	0.125241	204.89	166.667
21:22:38.830	10.16	0.151701	204.889	166.667
21:22:38.840	10.17	0.169134	204.888	101.695
21:22:38.850	10.18	0.167264	204.888	101.695
21:22:38.860	10.19	0.152821	204.887	101.695
21:22:38.870	10.2	0.126436	204.886	101.695
21:22:38.880	10.21	0.0844145	204.885	101.695
21:22:38.890	10.22	0.0383977	204.884	101.695
21:22:38.900	10.23	-0.000269529	204.883	101.695
21:22:38.910	10.24	-0.0313555	204.882	101.695
21:22:38.920	10.25	-0.0584993	204.881	101.695
21:22:38.930	10.26	-0.0754276	204.88	101.695
21:22:38.940	10.27	-0.0937429	204.879	101.695
21:22:38.950	10.28	-0.108891	204.878	101.695
21:22:38.960	10.29	-0.122454	204.878	101.695
21:22:38.970	10.3	-0.121792	204.877	101.695
21:22:38.980	10.31	-0.11731	204.876	101.695
21:22:38.990	10.32	-0.117645	204.876	101.695
21:22:39.000	10.33	-0.120294	204.876	101.695
21:22:39.010	10.34	-0.115605	204.876	101.695
21:22:39.020	10.35	-0.124468	204.875	101.695
21:22:39.030	10.36	-0.138303	204.876	101.695
21:22:39.040	10.37	-0.145153	204.876	101.695
21:22:39.050	10.38	-0.138951	204.876	101.695
21:22:39.060	10.39	-0.128256	204.877	101.695
21:22:39.070	10.4	-0.111267	204.877	101.695
21:22:39.080	10.41	-0.0826433	204.878	101.695
21:22:39.090	10.42	-0.0521397	204.879	101.695
21:22:39.100	10.43	-0.0249005	204.88	101.695
21:22:39.110	10.44	0.0016499	204.881	101.695
21:22:39.120	10.45	0.0281261	204.882	101.695
21:22:39.130	10.46	0.0427909	204.884	101.695
21:22:39.140	10.47	0.0361885	204.885	101.695
21:22:39.150	10.48	0.0343236	204.887	101.695
21:22:39.160	10.49	0.0390522	204.888	101.695
21:22:39.170	10.5	0.0338902	204.89	101.695
21:22:39.180	10.51	0.027549	204.892	101.695
21:22:39.190	10.52	0.0230041	204.894	101.695
21:22:39.200	10.53	0.0200184	204.896	101.695
21:22:39.210	10.54	-0.00498714	204.898	101.695
21:22:39.220	10.55	0.008723	204.901	101.695
21:22:39.230	10.56	0.0105342	204.904	101.695
21:22:39.240	10.57	-0.0158041	204.907	101.695
21:22:39.250	10.58	-0.0520912	204.911	101.695
21:22:39.260	10.59	-0.0505194	204.915	101.695
21:22:39.270	10.6	-0.0489172	204.919	101.695
21:22:39.280	10.61	-0.0644583	204.925	101.695
21:22:39.290	10.62	-0.0550115	204.93	101.695
21:22:39.300	10.63	-0.0404527	204.937	101.695
21:22:39.310	10.64	-0.0276385	204.945	101.695
21:22:39.320	10.65	-0.0370617	204.954	101.695
21:22:39.330	10.66	-0.0467799	204.964	101.695
21:22:39.340	10.67	-0.0458586	204.975	101.695
21:22:39.350	10.68	-0.0289824	204.988	101.695
21:22:39.360	10.69	0.00301904	205.002	101.695
21:22:39.370	10.7	0.032485	205.018	101.695
21:22:39.380	10.71	0.0573994	205.035	101.695
21:22:39.390	10.72	0.0822752	205.054	101.695
21:22:39.400	10.73	0.105915	205.075	101.695
21:22:39.410	10.74	0.12072	205.097	101.695
21:22:39.420	10.75	0.134025	205.121	101.695
21:22:39.430	10.76	0.139144	205.146	750
21:22:39.440	10.77	0.124252	205.173	750
21:22:39.450	10.78	0.0923609	205.202	750
21:22:39.460	10.79	0.0860835	205.231	750
21:22:39.470	10.8	0.0961403	205.262	750
21:22:39.480	10.81	0.114723	205.294	750
21:22:39.490	10.82	0.141121	205.326	750
21:22:39.500	10.83	0.169789	205.36	750
21:22:39.510	10.84	0.175198	205.394	92.3077
21:22:39.520	10.85	0.167055	205.428	92.3077
21:22:39.530	10.86	0.153244	205.463	92.3077
21:22:39.540	10.87	0.124145	205.497	92.3077
21:22:39.550	10.88	0.0930575	205.532	92.3077
21:22:39.560	10.89	0.0677003	205.566	92.3077
21:22:39.570	10.9	0.0426945	205.6	92.3077
21:22:39.580	10.91	0.0170719	205.634	92.3077
21:22:39.590	10.92	-0.00315041	205.666	92.3077
21:22:39.600	10.93	-0.0054786	205.698	92.3077
21:22:39.610	10.94	-0.0148833	205.729	92.3077
21:22:39.620	10.95	-0.0472419	205.758	92.3077
21:22:39.630	10.96	-0.079268	205.786	92.3077
21:22:39.640	10.97	-0.105087	205.813	92.3077
21:22:39.650	10.98	-0.108589	205.838	92.3077
21:22:39.660	10.99	-0.106065	205.861	92.3077
21:22:39.670	11	-0.103473	205.881	92.3077
21:22:39.680	11.01	-0.101884	205.9	92.3077
21:22:39.690	11.02	-0.0931537	205.917	92.3077
21:22:39.700	11.03	-0.0751077	205.931	92.3077
21:22:39.710	11.04	-0.0635707	205.942	92.3077
21:22:39.720	11.05	-0.0564573	205.951	92.3077
21:22:39.730	11.06	-0.0483	205.957	92.3077
21:22:39.740	11.07	-0.0431018	205.961	92.3077
21:22:39.750	11.08	-0.04281	205.962	92.3077
21:22:39.760	11.09	-0.0435306	205.96	92.3077
21:22:39.770	11.1	-0.0387801	205.955	92.3077
21:22:39.780	11.11	-0.024127	205.947	92.3077
21:22:39.790	11.12	-0.00433561	205.936	92.3077
21:22:39.800	11.13	0.0152423	205.923	92.3077
21:22:39.810	11.14	0.0278335	205.906	92.3077
21:22:39.820	11.15	0.0256242	205.887	92.3077
21:22:39.830	11.16	0.0170488	205.864	92.3077
21:22:39.840	11.17	0.00922144	205.838	92.3077
21:22:39.850	11.18	-0.00317242	205.81	92.3077
21:22:39.860	11.19	-0.0215336	205.778	92.3077
21:22:39.870	11.2	-0.033905	205.743	92.3077
21:22:39.880	11.21	-0.0405241	205.705	92.3077
21:22:39.890	11.22	-0.0459574	205.664	92.3077
21:22:39.900	11.23	-0.0513847	205.621	92.3077
21:22:39.910	11.24	-0.0475491	205.574	92.3077
21:22:39.920	11.25	-0.0432094	205.524	92.3077
21:22:39.930	11.26	-0.0453371	205.471	92.3077
21:22:39.940	11.27	-0.0541009	205.415	92.3077
21:22:39.950	11.28	-0.0624697	205.355	92.3077
21:22:39.960	11.29	-0.0694272	205.293	92.3077
21:22:39.970	11.3	-0.0702404	205.227	92.3077
21:22:39.980	11.31	-0.0683777	205.158	92.3077
21:22:39.990	11.32	-0.0681493	205.086	92.3077
21:22:40.000	11.33	-0.05376	205.01	92.3077
21:22:40.010	11.34	-0.0260052	204.931	92.3077
21:22:40.020	11.35	-0.0210921	204.848	92.3077
21:22:40.030	11.36	-0.00168664	204.763	92.3077
21:22:40.040	11.37	0.0170311	204.673	92.3077
21:22:40.050	11.38	0.0140002	204.581	92.3077
21:22:40.060	11.39	-0.00725341	204.484	92.3077
21:22:40.070	11.4	0.0133267	204.385	92.3077
21:22:40.080	11.41	-0.00920608	204.282	92.3077
21:22:40.090	11.42	-0.00825968	204.176	92.3077
21:22:40.100	11.43	0.0074749	204.066	92.3077
21:22:40.110	11.44	0.0327138	203.953	92.3077
21:22:40.120	11.45	0.0586128	203.837	92.3077
21:22:40.130	11.46	0.0924907	203.717	92.3077
21:22:40.140	11.47	0.140001	203.594	92.3077
21:22:40.150	11.48	0.168515	203.468	92.3077
21:22:40.160	11.49	0.182013	203.339	115.385
21:22:40.170	11.5	0.18058	203.207	115.385
21:22:40.180	11.51	0.176943	203.072	115.385
21:22:40.190	11.52	0.165598	202.933	115.385
21:22:40.200	11.53	0.145278	202.792	115.385
21:22:40.210	11.54	0.117581	202.648	115.385
21:22:40.220	11.55	0.0814854	202.501	115.385
21:22:40.230	11.56	0.0539541	202.352	115.385
21:22:40.240	11.57	0.0382306	202.199	115.385
21:22:40.250	11.58	0.0339922	202.044	115.385
21:22:40.260	11.59	0.0394646	201.887	115.385
21:22:40.270	11.6	0.0440902	201.727	115.385
21:22:40.280	11.61	0.036643	201.564	115.385
21:22:40.290	11.62	0.0263602	201.399	115.385
21:22:40.300	11.63	0.0126483	201.231	115.385
21:22:40.310	11.64	0.00673354	201.061	115.385
21:22:40.320	11.65	0.000266446	200.888	115.385
21:22:40.330	11.66	-0.00118417	200.714	115.385
21:22:40.340	11.67	-0.00450414	200.537	115.385
21:22:40.350	11.68	-0.00330084	200.358	115.385
21:22:40.360	11.69	-6.55206e-05	200.176	115.385
21:22:40.370	11.7	0.00822641	199.993	115.385
21:22:40.380	11.71	0.018752	199.808	115.385
21:22:40.390	11.72	0.037223	199.621	115.385
21:22:40.400	11.73	0.0519065	199.432	115.385
21:22:40.410	11.74	0.0599842	199.241	115.385
21:22:40.420	11.75	0.0652106	199.048	115.385
21:22:40.430	11.76	0.0727776	198.853	115.385
21:22:40.440	11.77	0.0820881	198.657	115.385
21:22:40.450	11.78	0.0918899	198.46	115.385
21:22:40.460	11.79	0.103438	198.26	115.385
21:22:40.470	11.8	0.106026	198.059	115.385
21:22:40.480	11.81	0.107023	197.857	115.385
21:22:40.490	11.82	0.0938642	197.653	115.385
21:22:40.500	11.83	0.0531965	197.448	115.385
21:22:40.510	11.84	0.0283047	197.242	115.385
21:22:40.520	11.85	0.00685933	197.035	115.385
21:22:40.530	11.86	0.00701735	196.826	115.385
21:22:40.540	11.87	0.0102658	196.616	115.385
21:22:40.550	11.88	0.021147	196.406	115.385
21:22:40.560	11.89	0.0348421	196.194	115.385
21:22:40.570	11.9	0.0519163	195.982	115.385
21:22:40.580	11.91	0.0684071	195.77	115.385
21:22:40.590	11.92	0.0770907	195.556	115.385
21:22:40.600	11.93	0.0804273	195.342	115.385
21:22:40.610	11.94	0.086928	195.128	115.385
21:22:40.620	11.95	0.100716	194.914	115.385
21:22:40.630	11.96	0.118513	194.699	115.385
21:22:40.640	11.97	0.132002	194.484	115.385
21:22:40.650	11.98	0.142706	194.269	115.385
21:22:40.660	11.99	0.154771	194.054	115.385
21:22:40.670	12	0.169167	193.84	115.385
21:22:40.680	12.01	0.204393	193.626	181.818
21:22:40.690	12.02	0.197318	193.412	181.818
21:22:40.700	12.03	0.186393	193.198	181.818
21:22:40.710	12.04	0.172378	192.985	181.818
21:22:40.720	12.05	0.15139	192.773	181.818
21:22:40.730	12.06	0.136305	192.562	181.818
21:22:40.740	12.07	0.116307	192.352	181.818
21:22:40.750	12.08	0.0920519	192.142	181.818
21:22:40.760	12.09	-0.146225	191.935	181.818
21:22:40.770	12.1	-0.176917	191.728	181.818
21:22:40.780	12.11	-0.165667	191.523	181.818
21:22:40.790	12.12	-0.129237	191.32	181.818
21:22:40.800	12.13	-0.161907	191.118	181.818
21:22:40.810	12.14	-0.200148	190.919	181.818
21:22:40.820	12.15	-0.227816	190.721	181.818
21:22:40.830	12.16	-0.23549	190.526	181.818
21:22:40.840	12.17	-0.206921	190.333	181.818
21:22:40.850	12.18	-0.157042	190.142	181.818
21:22:40.860	12.19	-0.0958014	189.955	181.818
21:22:40.870	12.2	-0.0783641	189.77	181.818
21:22:40.880	12.21	-0.135685	189.588	181.818
21:22:40.890	12.22	-0.232009	189.41	181.818
21:22:40.900	12.23	-0.292045	189.235	181.818
21:22:40.910	12.24	-0.298353	189.065	181.818
21:22:40.920	12.25	-0.271974	188.898	181.818
21:22:40.930	12.26	-0.235844	188.735	181.818
21:22:40.940	12.27	-0.193232	188.576	181.818
21:22:40.950	12.28	-0.140858	188.423	181.818
21:22:40.960	12.29	-0.0920723	188.273	181.818
21:22:40.970	12.3	-0.0462618	188.129	181.818
21:22:40.980	12.31	-0.000607223	187.989	181.818
21:22:40.990	12.32	0.0426948	187.855	181.818
21:22:41.000	12.33	0.0956284	187.725	181.818
21:22:41.010	12.34	0.137079	187.602	285.714
21:22:41.020	12.35	0.101495	187.483	285.714
21:22:41.030	12.36	0.0570456	187.371	285.714
21:22:41.040	12.37	0.0250077	187.264	285.714
21:22:41.050	12.38	-0.0106171	187.163	285.714
21:22:41.060	12.39	-0.0493453	187.068	285.714
21:22:41.070	12.4	-0.0520662	186.979	285.714
21:22:41.080	12.41	-0.0162294	186.895	285.714
21:22:41.090	12.42	0.00591763	186.818	285.714
21:22:41.100	12.43	0.0159433	186.746	285.714
21:22:41.110	12.44	0.0133453	186.681	285.714
21:22:41.120	12.45	0.0169269	186.621	285.714
21:22:41.130	12.46	0.0522985	186.567	285.714
21:22:41.140	12.47	0.0878473	186.518	285.714
21:22:41.150	12.48	0.0856295	186.475	285.714
21:22:41.160	12.49	0.0864056	186.436	285.714
21:22:41.170	12.5	0.0839467	186.403	285.714
21:22:41.180	12.51	0.070703	186.375	285.714
21:22:41.190	12.52	0.0715936	186.35	285.714
21:22:41.200	12.53	0.0875837	186.329	285.714
21:22:41.210	12.54	0.130326	186.31	285.714
21:22:41.220	12.55	0.150971	186.293	171.429
21:22:41.230	12.56	0.140081	186.278	171.429
21:22:41.240	12.57	0.119655	186.262	171.429
21:22:41.250	12.58	0.078163	186.245	171.429
21:22:41.260	12.59	0.0145403	186.227	171.429
21:22:41.270	12.6	-0.0396856	186.206	171.429
21:22:41.280	12.61	-0.0669403	186.181	171.429
21:22:41.290	12.62	-0.0686206	186.151	171.429
21:22:41.300	12.63	-0.0499044	186.118	171.429
21:22:41.310	12.64	-0.0178253	186.08	171.429
21:22:41.320	12.65	0.00787295	186.037	171.429
21:22:41.330	12.66	0.00477552	185.99	171.429
21:22:41.340	12.67	0.00552795	185.94	171.429
21:22:41.350	12.68	0.014631	185.886	171.429
21:22:41.360	12.69	0.000673479	185.83	171.429
21:22:41.370	12.7	-0.00117435	185.772	171.429
21:22:41.380	12.71	-0.0170685	185.713	171.429
21:22:41.390	12.72	0.000712424	185.653	171.429
21:22:41.400	12.73	0.00405533	185.595	171.429
21:22:41.410	12.74	0.0253033	185.537	171.429
21:22:41.420	12.75	0.052073	185.483	171.429
21:22:41.430	12.76	0.0597643	185.431	171.429
21:22:41.440	12.77	0.061249	185.384	171.429
21:22:41.450	12.78	0.0437153	185.342	171.429
21:22:41.460	12.79	0.00550796	185.306	171.429
21:22:41.470	12.8	-0.0208918	185.277	171.429
21:22:41.480	12.81	-0.0278686	185.253	171.429
21:22:41.490	12.82	-0.0310469	185.236	171.429
21:22:41.500	12.83	-0.0351303	185.224	171.429
21:22:41.510	12.84	-0.0367452	185.219	171.429
21:22:41.520	12.85	-0.0188851	185.219	171.429
21:22:41.530	12.86	0.0188602	185.224	171.429
21:22:41.540	12.87	0.0624574	185.233	171.429
21:22:41.550	12.88	0.107471	185.247	171.429
21:22:41.560	12.89	0.163021	185.264	171.429
21:22:41.570	12.9	0.195212	185.285	171.429
21:22:41.580	12.91	0.178229	185.31	171.429
21:22:41.590	12.92	0.15373	185.339	171.429
21:22:41.600	12.93	0.156229	185.372	171.429
21:22:41.610	12.94	0.154574	185.411	171.429
21:22:41.620	12.95	0.11126	185.455	171.429
21:22:41.630	12.96	0.0748377	185.505	171.429
21:22:41.640	12.97	0.0680559	185.563	171.429
21:22:41.650	12.98	0.0672399	185.628	171.429
21:22:41.660	12.99	0.0576381	185.701	171.429
21:22:41.670	13	0.03903	185.784	171.429
21:22:41.680	13.01	-0.00313853	185.878	171.429
21:22:41.690	13.02	-0.0457032	185.984	171.429
21:22:41.700	13.03	-0.0334167	186.104	171.429
21:22:41.710	13.04	-0.0336029	186.238	171.429
21:22:41.720	13.05	-0.0739681	186.389	171.429
21:22:41.730	13.06	-0.113194	186.559	171.429
21:22:41.740	13.07	-0.106634	186.747	171.429
21:22:41.750	13.08	-0.0766872	186.957	171.429
21:22:41.760	13.09	-0.0817663	187.19	171.429
21:22:41.770	13.1	-0.120597	187.447	171.429
21:22:41.780	13.11	-0.145513	187.729	171.429
21:22:41.790	13.12	-0.145057	188.039	171.429
21:22:41.800	13.13	-0.124807	188.376	171.429
21:22:41.810	13.14	-0.105283	188.744	171.429
21:22:41.820	13.15	-0.0752015	189.143	171.429
21:22:41.830	13.16	-0.0398785	189.573	171.429
21:22:41.840	13.17	-0.00309512	190.037	171.429
21:22:41.850	13.18	0.0340907	190.535	171.429
21:22:41.860	13.19	0.0740431	191.068	171.429
21:22:41.870	13.2	0.128778	191.637	171.429
21:22:41.880	13.21	0.187491	192.243	171.429
21:22:41.890	13.22	0.233166	192.886	171.429
21:22:41.900	13.23	0.260797	193.566	171.429
21:22:41.910	13.24	0.277725	194.286	171.429
21:22:41.920	13.25	0.293792	195.043	150
21:22:41.930	13.26	0.28048	195.84	150
21:22:41.940	13.27	0.243226	196.676	150
21:22:41.950	13.28	0.194518	197.551	150
21:22:41.960	13.29	0.157123	198.465	150
21:22:41.970	13.3	0.128193	199.419	150
21:22:41.980	13.31	0.0921539	200.411	150
21:22:41.990	13.32	0.0608694	201.442	150
21:22:42.000	13.33	0.0249699	202.512	150
21:22:42.010	13.34	-0.00716175	203.619	150
21:22:42.020	13.35	-0.023833	204.764	150
21:22:42.030	13.36	-0.0229832	205.946	150
21:22:42.040	13.37	-0.0272099	207.164	150
21:22:42.050	13.38	-0.0119628	208.417	150
21:22:42.060	13.39	-0.00902853	209.706	150
21:22:42.070	13.4	-0.0498203	211.028	150
21:22:42.080	13.41	-0.128445	212.383	150
21:22:42.090	13.42	-0.2168	213.771	150
21:22:42.100	13.43	-0.285781	215.19	150
21:22:42.110	13.44	-0.370457	216.639	150
21:22:42.120	13.45	-0.463043	218.117	150
21:22:42.130	13.46	-0.503975	219.623	150
21:22:42.140	13.47	-0.481774	221.156	150
21:22:42.150	13.48	-0.400208	222.714	150
21:22:42.160	13.49	-0.318843	224.297	150
21:22:42.170	13.5	-0.242501	225.904	150
21:22:42.180	13.51	-0.171499	227.532	150
21:22:42.190	13.52	-0.0952426	229.181	150
21:22:42.200	13.53	-0.0299457	230.849	150
21:22:42.210	13.54	0.00403765	232.536	150
21:22:42.220	13.55	0.0015493	234.239	150
21:22:42.230	13.56	-0.0190021	235.958	150
21:22:42.240	13.57	-0.0490962	237.691	150
21:22:42.250	13.58	-0.0542714	239.436	150
21:22:42.260	13.59	-0.033984	241.193	150
21:22:42.270	13.6	0.00150525	242.961	150
21:22:42.280	13.61	0.0484835	244.737	150
21:22:42.290	13.62	0.107587	246.52	150
21:22:42.300	13.63	0.154184	248.31	150
21:22:42.310	13.64	0.178755	250.105	150
21:22:42.320	13.65	0.179056	251.903	86.9565
21:22:42.330	13.66	0.164029	253.704	86.9565
21:22:42.340	13.67	0.1115	255.506	86.9565
21:22:42.350	13.68	0.0355216	257.308	86.9565
21:22:42.360	13.69	-0.0206624	259.108	86.9565
21:22:42.370	13.7	-0.0693294	260.906	86.9565
21:22:42.380	13.71	-0.109391	262.7	86.9565
21:22:42.390	13.72	-0.133566	264.49	86.9565
21:22:42.400	13.73	-0.14597	266.273	86.9565
21:22:42.410	13.74	-0.208957	268.05	86.9565
21:22:42.420	13.75	-0.119654	269.818	86.9565
21:22:42.430	13.76	-0.0372631	271.578	86.9565
21:22:42.440	13.77	-0.15017	273.327	86.9565
21:22:42.450	13.78	-0.14677	275.065	86.9565
21:22:42.460	13.79	-0.0223881	276.792	86.9565
21:22:42.470	13.8	-0.0660462	278.505	86.9565
21:22:42.480	13.81	-0.193039	280.205	86.9565
21:22:42.490	13.82	-0.154967	281.89	86.9565
21:22:42.500	13.83	-0.076017	283.56	86.9565
21:22:42.510	13.84	-0.0721358	285.213	86.9565
21:22:42.520	13.85	-0.0837179	286.85	86.9565
21:22:42.530	13.86	-0.0443349	288.468	86.9565
21:22:42.540	13.87	0.00998846	290.069	86.9565
21:22:42.550	13.88	0.0293241	291.651	86.9565
21:22:42.560	13.89	0.00704477	293.213	86.9565
21:22:42.570	13.9	0.00342682	294.755	86.9565
21:22:42.580	13.91	0.0316791	296.276	86.9565
21:22:42.590	13.92	0.0498494	297.776	86.9565
21:22:42.600	13.93	0.0562048	299.255	86.9565
21:22:42.610	13.94	0.0478535	300.711	86.9565
21:22:42.620	13.95	0.0464731	302.145	86.9565
21:22:42.630	13.96	0.0353129	303.557	86.9565
21:22:42.640	13.97	0.0238447	304.944	86.9565
21:22:42.650	13.98	0.0213659	306.309	86.9565
21:22:42.660	13.99	-0.000240285	307.65	86.9565
21:22:42.670	14	0.00195209	308.966	86.9565
21:22:42.680	14.01	0.0186014	310.259	86.9565
21:22:42.690	14.02	0.0168397	311.527	86.9565
21:22:42.700	14.03	-0.00665639	312.77	86.9565
21:22:42.710	14.04	-0.0308741	313.989	86.9565
21:22:42.720	14.05	-0.0329713	315.182	86.9565
21:22:42.730	14.06	-0.0253697	316.351	86.9565
21:22:42.740	14.07	-0.0142305	317.495	86.9565
21:22:42.750	14.08	-0.00395867	318.614	86.9565
21:22:42.760	14.09	-0.0143948	319.707	86.9565
21:22:42.770	14.1	-0.0369967	320.776	86.9565
21:22:42.780	14.11	-0.0540896	321.82	86.9565
21:22:42.790	14.12	-0.0646943	322.839	86.9565
21:22:42.800	14.13	-0.0604325	323.833	86.9565
21:22:42.810	14.14	-0.0403929	324.802	86.9565
21:22:42.820	14.15	-0.0166688	325.747	86.9565
21:22:42.830	14.16	-0.000175305	326.667	86.9565
21:22:42.840	14.17	0.0174346	327.563	86.9565
21:22:42.850	14.18	0.0456433	328.435	86.9565
21:22:42.860	14.19	0.06932	329.283	86.9565
21:22:42.870	14.2	0.0880006	330.108	86.9565
21:22:42.880	14.21	0.0946063	330.908	86.9565
21:22:42.890	14.22	0.0773609	331.686	86.9565
21:22:42.900	14.23	0.0544649	332.441	86.9565
21:22:42.910	14.24	0.0226997	333.172	86.9565
21:22:42.920	14.25	-0.0028122	333.882	86.9565
21:22:42.930	14.26	-0.00239204	334.569	86.9565
21:22:42.940	14.27	0.00808119	335.234	86.9565
21:22:42.950	14.28	0.0215135	335.878	86.9565
21:22:42.960	14.29	0.0417957	336.501	86.9565
21:22:42.970	14.3	0.0762715	337.103	86.9565
21:22:42.980	14.31	0.11883	337.684	86.9565
21:22:42.990	14.32	0.166709	338.245	86.9565
21:22:43.000	14.33	0.217653	338.786	86.9565
21:22:43.010	14.34	0.24827	339.308	115.385
21:22:43.020	14.35	0.233113	339.81	115.385
21:22:43.030	14.36	0.186751	340.294	115.385
21:22:43.040	14.37	0.133991	340.759	115.385
21:22:43.050	14.38	0.108814	341.207	115.385
21:22:43.060	14.39	0.101379	341.637	115.385
21:22:43.070	14.4	0.0909921	342.049	115.385
21:22:43.080	14.41	0.0627164	342.445	115.385
21:22:43.090	14.42	0.0184609	342.824	115.385
21:22:43.100	14.43	-0.0252445	343.187	115.385
21:22:43.110	14.44	-0.0572394	343.534	115.385
21:22:43.120	14.45	-0.0894462	343.866	115.385
21:22:43.130	14.46	-0.105655	344.183	115.385
21:22:43.140	14.47	-0.0976528	344.485	115.385
21:22:43.150	14.48	-0.0825557	344.773	115.385
21:22:43.160	14.49	-0.0837415	345.048	115.385
21:22:43.170	14.5	-0.110595	345.309	115.385
21:22:43.180	14.51	-0.16094	345.557	115.385
21:22:43.190	14.52	-0.195126	345.792	115.385
21:22:43.200	14.53	-0.255995	346.015	115.385
21:22:43.210	14.54	-0.282793	346.226	115.385
21:22:43.220	14.55	-0.300039	346.425	115.385
21:22:43.230	14.56	-0.303183	346.614	115.385
21:22:43.240	14.57	-0.284653	346.791	115.385
21:22:43.250	14.58	-0.271585	346.958	115.385
21:22:43.260	14.59	-0.284991	347.115	115.385
21:22:43.270	14.6	-0.292797	347.262	115.385
21:22:43.280	14.61	-0.229956	347.4	115.385
21:22:43.290	14.62	-0.187072	347.529	115.385
21:22:43.300	14.63	-0.143484	347.648	115.385
21:22:43.310	14.64	-0.0982398	347.76	115.385
21:22:43.320	14.65	-0.0458594	347.863	115.385
21:22:43.330	14.66	0.00163187	347.958	115.385
21:22:43.340	14.67	0.0344774	348.046	115.385
21:22:43.350	14.68	0.027009	348.127	115.385
21:22:43.360	14.69	-0.0141636	348.201	115.385
21:22:43.370	14.7	-0.0304612	348.268	115.385
21:22:43.380	14.71	-0.0452329	348.329	115.385
21:22:43.390	14.72	-0.0513578	348.383	115.385
21:22:43.400	14.73	-0.0450086	348.432	115.385
21:22:43.410	14.74	-0.082782	348.476	115.385
21:22:43.420	14.75	-0.0685368	348.514	115.385
21:22:43.430	14.76	-0.0193703	348.547	115.385
21:22:43.440	14.77	-0.0220398	348.575	115.385
21:22:43.450	14.78	-0.0319057	348.599	115.385
21:22:43.460	14.79	0.00525229	348.619	115.385
21:22:43.470	14.8	0.0516689	348.634	115.385
21:22:43.480	14.81	0.138766	348.646	115.385
21:22:43.490	14.82	0.219599	348.654	115.385
21:22:43.500	14.83	0.234645	348.658	115.385
21:22:43.510	14.84	0.227738	348.659	115.385
21:22:43.520	14.85	0.245573	348.658	115.385
21:22:43.530	14.86	0.259726	348.653	75.9494
21:22:43.540	14.87	0.223818	348.645	75.9494
21:22:43.550	14.88	0.189391	348.636	75.9494
21:22:43.560	14.89	0.151792	348.623	75.9494
21:22:43.570	14.9	0.169461	348.609	75.9494
21:22:43.580	14.91	0.18878	348.593	75.9494
21:22:43.590	14.92	0.154678	348.574	75.9494
21:22:43.600	14.93	0.097435	348.554	75.9494
21:22:43.610	14.94	0.0269552	348.533	75.9494
21:22:43.620	14.95	-0.0509839	348.51	75.9494
21:22:43.630	14.96	-0.0577018	348.486	75.9494
21:22:43.640	14.97	-0.0566144	348.46	75.9494
21:22:43.650	14.98	-0.0231839	348.433	75.9494
21:22:43.660	14.99	0.0409397	348.406	75.9494
21:22:43.670	15	0.10539	348.378	75.9494
21:22:43.680	15.01	0.0931588	348.348	75.9494
21:22:43.690	15.02	0.0802068	348.319	75.9494
21:22:43.700	15.03	0.040484	348.288	75.9494
21:22:43.710	15.04	-0.00360022	348.257	75.9494
21:22:43.720	15.05	-0.0206655	348.226	75.9494
21:22:43.730	15.06	0.0110304	348.195	75.9494
21:22:43.740	15.07	0.0383755	348.163	75.9494
21:22:43.750	15.08	0.0315276	348.131	75.9494
21:22:43.760	15.09	0.00443728	348.099	75.9494
21:22:43.770	15.1	-0.0453744	348.067	75.9494
21:22:43.780	15.11	-0.097226	348.035	75.9494
21:22:43.790	15.12	-0.161461	348.003	75.9494
21:22:43.800	15.13	-0.276353	347.971	75.9494
21:22:43.810	15.14	-0.357606	347.94	75.9494
21:22:43.820	15.15	-0.437457	347.909	75.9494
21:22:43.830	15.16	-0.506475	347.878	75.9494
21:22:43.840	15.17	-0.532005	347.847	75.9494
21:22:43.850	15.18	-0.547535	347.817	75.9494
21:22:43.860	15.19	-0.500251	347.787	75.9494
21:22:43.870	15.2	-0.34193	347.757	75.9494
21:22:43.880	15.21	-0.260452	347.728	75.9494
21:22:43.890	15.22	-0.319632	347.7	75.9494
21:22:43.900	15.23	-0.329383	347.672	75.9494
21:22:43.910	15.24	-0.196401	347.645	75.9494
21:22:43.920	15.25	-0.187877	347.618	75.9494
21:22:43.930	15.26	-0.346695	347.592	75.9494
21:22:43.940	15.27	-0.341599	347.566	75.9494
21:22:43.950	15.28	-0.158979	347.541	75.9494
21:22:43.960	15.29	-0.1049	347.516	75.9494
21:22:43.970	15.3	-0.131801	347.493	75.9494
21:22:43.980	15.31	-0.161548	347.469	75.9494
21:22:43.990	15.32	-0.158658	347.447	75.9494
21:22:44.000	15.33	-0.0588067	347.425	75.9494
21:22:44.010	15.34	-0.0191889	347.404	75.9494
21:22:44.020	15.35	-0.0562674	347.383	75.9494
21:22:44.030	15.36	-0.0114434	347.363	75.9494
21:22:44.040	15.37	0.0586173	347.344	75.9494
21:22:44.050	15.38	0.0804407	347.326	75.9494
21:22:44.060	15.39	0.0437711	347.308	75.9494
21:22:44.070	15.4	-0.00338894	347.291	75.9494
21:22:44.080	15.41	-0.0241865	347.274	75.9494
21:22:44.090	15.42	0.0152848	347.258	75.9494
21:22:44.100	15.43	0.0174712	347.243	75.9494
21:22:44.110	15.44	-0.032852	347.228	75.9494
21:22:44.120	15.45	0.0157959	347.214	75.9494
21:22:44.130	15.46	0.0730221	347.201	75.9494
21:22:44.140	15.47	0.0562658	347.188	75.9494
21:22:44.150	15.48	0.0552812	347.176	75.9494
21:22:44.160	15.49	0.0873061	347.164	75.9494
21:22:44.170	15.5	0.0536108	347.153	75.9494
21:22:44.180	15.51	0.0075681	347.143	75.9494
21:22:44.190	15.52	-0.0360773	347.133	75.9494
21:22:44.200	15.53	-0.0981936	347.123	75.9494
21:22:44.210	15.54	-0.115271	347.115	75.9494
21:22:44.220	15.55	-0.108209	347.106	75.9494
21:22:44.230	15.56	-0.0931917	347.098	75.9494
21:22:44.240	15.57	-0.0747396	347.091	75.9494
21:22:44.250	15.58	0.00879321	347.084	75.9494
21:22:44.260	15.59	0.0629776	347.078	75.9494
21:22:44.270	15.6	0.0659062	347.072	75.9494
21:22:44.280	15.61	0.10633	347.066	75.9494
21:22:44.290	15.62	0.137978	347.061	75.9494
21:22:44.300	15.63	0.123932	347.057	75.9494
21:22:44.310	15.64	0.148739	347.052	75.9494
21:22:44.320	15.65	0.199057	347.049	77.9221
21:22:44.330	15.66	0.178817	347.045	77.9221
21:22:44.340	15.67	0.125261	347.042	77.9221
21:22:44.350	15.68	0.0977661	347.039	77.9221
21:22:44.360	15.69	0.0758246	347.037	77.9221
21:22:44.370	15.7	0.0779328	347.034	77.9221
21:22:44.380	15.71	0.0404087	347.033	77.9221
21:22:44.390	15.72	0.0103363	347.031	77.9221
21:22:44.400	15.73	0.0566657	347.03	77.9221
21:22:44.410	15.74	0.103795	347.029	77.9221
21:22:44.420	15.75	0.10109	347.028	77.9221
21:22:44.430	15.76	0.0819977	347.027	77.9221
21:22:44.440	15.77	0.0838989	347.027	77.9221
21:22:44.450	15.78	0.111143	347.027	77.9221
21:22:44.460	15.79	0.106358	347.027	77.9221
21:22:44.470	15.8	0.0555066	347.027	77.9221
21:22:44.480	15.81	-0.00150444	347.028	77.9221
21:22:44.490	15.82	-0.0918926	347.029	77.9221
21:22:44.500	15.83	-0.123594	347.029	77.9221
21:22:44.510	15.84	-0.160228	347.03	77.9221
21:22:44.520	15.85	-0.208716	347.031	77.9221
21:22:44.530	15.86	-0.272405	347.033	77.9221
21:22:44.540	15.87	-0.266029	347.034	77.9221
21:22:44.550	15.88	-0.197799	347.035	77.9221
21:22:44.560	15.89	-0.186078	347.037	77.9221
21:22:44.570	15.9	-0.169399	347.039	77.9221
21:22:44.580	15.91	-0.119547	347.04	77.9221
21:22:44.590	15.92	-0.105193	347.042	77.9221
21:22:44.600	15.93	-0.125116	347.044	77.9221
21:22:44.610	15.94	-0.139828	347.046	77.9221
21:22:44.620	15.95	-0.128189	347.047	77.9221
21:22:44.630	15.96	-0.116627	347.049	77.9221
21:22:44.640	15.97	-0.0937024	347.051	77.9221
21:22:44.650	15.98	-0.104706	347.053	77.9221
21:22:44.660	15.99	-0.0955068	347.055	77.9221
21:22:44.670	16	-0.0363204	347.057	77.9221
21:22:44.680	16.01	-0.00264665	347.059	77.9221
21:22:44.690	16.02	-0.0181864	347.061	77.9221
21:22:44.700	16.03	-0.0339727	347.063	77.9221
21:22:44.710	16.04	-0.0265465	347.065	77.9221
21:22:44.720	16.05	-0.00835499	347.067	77.9221
21:22:44.729	16.06	0.00968878	347.069	77.9221
21:22:44.740	16.07	0.0348515	347.071	77.9221
21:22:44.749	16.08	0.0264051	347.072	77.9221
21:22:44.760	16.09	-0.0162553	347.074	77.9221
21:22:44.770	16.1	-0.0789683	347.076	77.9221
21:22:44.780	16.11	-0.132818	347.078	77.9221
21:22:44.790	16.12	-0.15293	347.079	77.9221
21:22:44.799	16.13	-0.145863	347.081	77.9221
21:22:44.810	16.14	-0.151225	347.082	77.9221
21:22:44.819	16.15	-0.120993	347.084	77.9221
21:22:44.830	16.16	-0.0632241	347.085	77.9221
21:22:44.840	16.17	-0.015823	347.086	77.9221
21:22:44.850	16.18	0.0227165	347.087	77.9221
21:22:44.860	16.19	0.0436528	347.089	77.9221
21:22:44.870	16.2	0.0485946	347.09	77.9221
21:22:44.880	16.21	0.0416637	347.091	77.9221
21:22:44.889	16.22	0.0199436	347.092	77.9221
21:22:44.900	16.23	-0.0227358	347.093	77.9221
21:22:44.909	16.24	-0.0470351	347.093	77.9221
21:22:44.920	16.25	-0.0410679	347.094	77.9221
21:22:44.930	16.26	-0.0344396	347.095	77.9221
21:22:44.940	16.27	-0.0342936	347.095	77.9221
21:22:44.950	16.28	-0.0318107	347.096	77.9221
21:22:44.960	16.29	-0.0213819	347.096	77.9221
21:22:44.970	16.3	-0.0282477	347.096	77.9221
21:22:44.979	16.31	-0.0598669	347.096	77.9221
21:22:44.990	16.32	-0.0560093	347.096	77.9221
21:22:44.999	16.33	-0.0380602	347.096	77.9221
21:22:45.010	16.34	-0.00736057	347.096	77.9221
21:22:45.020	16.35	-0.0157393	347.096	77.9221
21:22:45.030	16.36	-0.0267124	347.096	77.9221
21:22:45.040	16.37	-0.0223695	347.096	77.9221
21:22:45.049	16.38	0.0198581	347.095	77.9221
21:22:45.060	16.39	0.105978	347.095	77.9221
21:22:45.070	16.4	0.0798113	347.094	77.9221
21:22:45.080	16.41	0.119482	347.093	77.9221
21:22:45.090	16.42	0.136644	347.092	83.3333
21:22:45.100	16.43	0.131463	347.091	83.3333
21:22:45.110	16.44	0.116348	347.09	83.3333
21:22:45.120	16.45	0.0991412	347.089	83.3333
21:22:45.130	16.46	0.0838236	347.088	83.3333
21:22:45.140	16.47	0.0874877	347.087	83.3333
21:22:45.150	16.48	0.0791674	347.085	83.3333
21:22:45.160	16.49	0.0676881	347.084	83.3333
21:22:45.170	16.5	0.00842749	347.082	83.3333
21:22:45.180	16.51	-0.0293099	347.081	83.3333
21:22:45.190	16.52	-0.0583393	347.079	83.3333
21:22:45.200	16.53	-0.0832778	347.077	83.3333
21:22:45.210	16.54	-0.124361	347.075	83.3333
21:22:45.220	16.55	-0.141018	347.073	83.3333
21:22:45.230	16.56	-0.172485	347.071	83.3333
21:22:45.240	16.57	-0.224429	347.069	83.3333
21:22:45.250	16.58	-0.214153	347.067	83.3333
21:22:45.260	16.59	-0.204226	347.065	83.3333
21:22:45.270	16.6	-0.16398	347.062	83.3333
21:22:45.280	16.61	-0.113613	347.06	83.3333
21:22:45.290	16.62	-0.0404568	347.057	83.3333
21:22:45.300	16.63	-4.14413e-05	347.055	83.3333
21:22:45.310	16.64	0.00501795	347.052	83.3333
21:22:45.320	16.65	-0.00730459	347.05	83.3333
21:22:45.330	16.66	-0.0497901	347.047	83.3333
21:22:45.340	16.67	-0.0430959	347.044	83.3333
21:22:45.350	16.68	-0.0174615	347.041	83.3333
21:22:45.360	16.69	0.0226264	347.038	83.3333
21:22:45.370	16.7	0.0905749	347.036	83.3333
21:22:45.380	16.71	0.0715736	347.033	83.3333
21:22:45.390	16.72	0.0897637	347.03	83.3333
21:22:45.400	16.73	0.10953	347.026	83.3333
21:22:45.410	16.74	0.103981	347.023	83.3333
21:22:45.420	16.75	0.0867546	347.02	83.3333
21:22:45.430	16.76	0.092337	347.017	83.3333
21:22:45.440	16.77	0.116742	347.014	83.3333
21:22:45.450	16.78	0.125607	347.01	83.3333
21:22:45.460	16.79	0.122529	347.007	83.3333
21:22:45.470	16.8	0.116196	347.003	83.3333
21:22:45.480	16.81	0.102914	347	83.3333
21:22:45.490	16.82	0.0824412	346.996	83.3333
21:22:45.500	16.83	0.0591261	346.993	83.3333
21:22:45.510	16.84	0.0525009	346.989	83.3333
21:22:45.520	16.85	0.0640717	346.985	83.3333
21:22:45.530	16.86	0.060889	346.982	83.3333
21:22:45.540	16.87	0.0295169	346.978	83.3333
21:22:45.550	16.88	0.000447612	346.974	83.3333
21:22:45.560	16.89	-0.0129647	346.97	83.3333
21:22:45.570	16.9	-0.0118948	346.967	83.3333
21:22:45.580	16.91	-0.0338564	346.963	83.3333
21:22:45.590	16.92	-0.0462166	346.959	83.3333
21:22:45.600	16.93	-0.0451806	346.955	83.3333
21:22:45.610	16.94	-0.0618286	346.951	83.3333
21:22:45.620	16.95	-0.09052	346.947	83.3333
21:22:45.630	16.96	-0.0982028	346.943	83.3333
21:22:45.640	16.97	-0.104124	346.939	83.3333
21:22:45.650	16.98	-0.113758	346.935	83.3333
21:22:45.660	16.99	-0.108077	346.931	83.3333
21:22:45.670	17	-0.10245	346.927	83.3333
21:22:45.680	17.01	-0.113944	346.923	83.3333
21:22:45.690	17.02	-0.135542	346.919	83.3333
21:22:45.700	17.03	-0.129955	346.915	83.3333
21:22:45.710	17.04	-0.118401	346.911	83.3333
21:22:45.720	17.05	-0.123826	346.906	83.3333
21:22:45.730	17.06	-0.113755	346.902	83.3333
21:22:45.740	17.07	-0.0893335	346.898	83.3333
21:22:45.750	17.08	-0.0607825	346.894	83.3333
21:22:45.760	17.09	-0.0271409	346.89	83.3333
21:22:45.770	17.1	0.0171853	346.886	83.3333
21:22:45.780	17.11	0.0653172	346.882	83.3333
21:22:45.790	17.12	0.103415	346.878	83.3333
21:22:45.800	17.13	0.138926	346.874	83.3333
21:22:45.810	17.14	0.15826	346.87	89.5522
21:22:45.820	17.15	0.153826	346.865	89.5522
21:22:45.830	17.16	0.143194	346.861	89.5522
21:22:45.840	17.17	0.13531	346.857	89.5522
21:22:45.850	17.18	0.118387	346.853	89.5522
21:22:45.860	17.19	0.0909183	346.849	89.5522
21:22:45.870	17.2	0.0539531	346.845	89.5522
21:22:45.880	17.21	0.0466743	346.841	89.5522
21:22:45.890	17.22	0.0418469	346.837	89.5522
21:22:45.900	17.23	0.04169	346.833	89.5522
21:22:45.910	17.24	0.0445509	346.829	89.5522
21:22:45.920	17.25	0.0476044	346.825	89.5522
21:22:45.930	17.26	0.0531784	346.821	89.5522
21:22:45.940	17.27	0.0414659	346.817	89.5522
21:22:45.950	17.28	0.00568975	346.813	89.5522
21:22:45.960	17.29	-0.0284909	346.809	89.5522
21:22:45.970	17.3	-0.0314231	346.805	89.5522
21:22:45.980	17.31	-0.028276	346.801	89.5522
21:22:45.990	17.32	-0.0505644	346.797	89.5522
21:22:46.000	17.33	-0.0679046	346.794	89.5522
21:22:46.010	17.34	-0.0661601	346.79	89.5522
21:22:46.020	17.35	-0.0647309	346.786	89.5522
21:22:46.030	17.36	-0.0585432	346.782	89.5522
21:22:46.040	17.37	-0.049454	346.778	89.5522
21:22:46.050	17.38	-0.052027	346.774	89.5522
21:22:46.060	17.39	-0.0547523	346.77	89.5522
21:22:46.070	17.4	-0.0281098	346.767	89.5522
21:22:46.080	17.41	-0.00322987	346.763	89.5522
21:22:46.090	17.42	0.021791	346.759	89.5522
21:22:46.100	17.43	0.0314896	346.755	89.5522
21:22:46.110	17.44	0.0389514	346.752	89.5522
21:22:46.120	17.45	0.0660706	346.748	89.5522
21:22:46.130	17.46	0.0801221	346.744	89.5522
21:22:46.140	17.47	0.104833	346.74	89.5522
21:22:46.150	17.48	0.096264	346.736	89.5522
21:22:46.160	17.49	0.0815215	346.733	89.5522
21:22:46.170	17.5	0.0529213	346.729	89.5522
21:22:46.180	17.51	0.0298668	346.725	89.5522
21:22:46.190	17.52	0.024057	346.721	89.5522
21:22:46.200	17.53	0.0262893	346.718	89.5522
21:22:46.210	17.54	0.0341912	346.714	89.5522
21:22:46.220	17.55	0.0486507	346.71	89.5522
21:22:46.230	17.56	0.0554327	346.706	89.5522
21:22:46.240	17.57	0.0544828	346.703	89.5522
21:22:46.250	17.58	0.0373663	346.699	89.5522
21:22:46.260	17.59	0.0178156	346.695	89.5522
21:22:46.270	17.6	0.0048441	346.691	89.5522
21:22:46.280	17.61	-0.00136686	346.688	89.5522
21:22:46.290	17.62	-0.000941349	346.684	89.5522
21:22:46.300	17.63	0.00836708	346.68	89.5522
21:22:46.310	17.64	0.0302488	346.676	89.5522
21:22:46.320	17.65	0.0352745	346.672	89.5522
21:22:46.330	17.66	0.0230379	346.668	89.5522
21:22:46.340	17.67	0.0214488	346.665	89.5522
21:22:46.350	17.68	0.0224048	346.661	89.5522
21:22:46.360	17.69	0.0307055	346.657	89.5522
21:22:46.370	17.7	0.0100352	346.653	89.5522
21:22:46.380	17.71	-0.0104154	346.649	89.5522
21:22:46.390	17.72	-0.00980758	346.645	89.5522
21:22:46.400	17.73	-0.0173034	346.641	89.5522
21:22:46.410	17.74	-0.0302302	346.637	89.5522
21:22:46.420	17.75	-0.0300102	346.633	89.5522
21:22:46.430	17.76	0.000624081	346.629	89.5522
21:22:46.440	17.77	0.0470589	346.625	89.5522
21:22:46.450	17.78	0.100224	346.622	89.5522
21:22:46.460	17.79	0.134354	346.618	89.5522
21:22:46.470	17.8	0.156596	346.614	89.5522
21:22:46.480	17.81	0.176924	346.61	90.9091
21:22:46.490	17.82	0.171724	346.606	90.9091
21:22:46.500	17.83	0.142474	346.602	90.9091
21:22:46.510	17.84	0.122089	346.598	90.9091
21:22:46.520	17.85	0.0982637	346.594	90.9091
21:22:46.530	17.86	0.0699259	346.59	90.9091
21:22:46.540	17.87	0.0565674	346.586	90.9091
21:22:46.550	17.88	0.0578876	346.582	90.9091
21:22:46.560	17.89	0.0601258	346.578	90.9091
21:22:46.570	17.9	0.0677157	346.574	90.9091
21:22:46.580	17.91	0.0654201	346.57	90.9091
21:22:46.590	17.92	0.0488904	346.566	90.9091
21:22:46.600	17.93	0.0188546	346.562	90.9091
21:22:46.610	17.94	-0.0229589	346.558	90.9091
21:22:46.620	17.95	-0.0542492	346.554	90.9091
21:22:46.630	17.96	-0.0856829	346.55	90.9091
21:22:46.640	17.97	-0.088217	346.546	90.9091
21:22:46.650	17.98	-0.0880497	346.542	90.9091
21:22:46.660	17.99	-0.0906976	346.538	90.9091
21:22:46.670	18	-0.0743688	346.534	90.9091
21:22:46.680	18.01	-0.0578941	346.53	90.9091
21:22:46.690	18.02	-0.0363254	346.526	90.9091
21:22:46.700	18.03	-0.0147714	346.522	90.9091
21:22:46.710	18.04	-0.012256	346.518	90.9091
21:22:46.720	18.05	0.000323659	346.514	90.9091
21:22:46.730	18.06	0.0128253	346.51	90.9091
21:22:46.740	18.07	0.0447563	346.506	90.9091
21:22:46.750	18.08	0.0879513	346.502	90.9091
21:22:46.760	18.09	0.12327	346.498	90.9091
21:22:46.770	18.1	0.132343	346.494	90.9091
21:22:46.780	18.11	0.128825	346.491	90.9091
21:22:46.790	18.12	0.109621	346.487	90.9091
21:22:46.800	18.13	0.0855931	346.483	90.9091
21:22:46.810	18.14	0.0652946	346.479	90.9091
21:22:46.820	18.15	0.0601048	346.475	90.9091
21:22:46.830	18.16	0.0493035	346.471	90.9091
21:22:46.840	18.17	0.0337507	346.467	90.9091
21:22:46.850	18.18	0.0141744	346.463	90.9091
21:22:46.860	18.19	-0.0205779	346.459	90.9091
21:22:46.870	18.2	-0.0592801	346.455	90.9091
21:22:46.880	18.21	-0.10567	346.451	90.9091
21:22:46.890	18.22	-0.118744	346.447	90.9091
21:22:46.900	18.23	-0.104728	346.443	90.9091
21:22:46.910	18.24	-0.0925408	346.439	90.9091
21:22:46.920	18.25	-0.0756038	346.435	90.9091
21:22:46.930	18.26	-0.0579729	346.432	90.9091
21:22:46.940	18.27	-0.0440159	346.428	90.9091
21:22:46.950	18.28	-0.045213	346.424	90.9091
21:22:46.960	18.29	-0.0309352	346.42	90.9091
21:22:46.970	18.3	-0.0202356	346.416	90.9091
21:22:46.980	18.31	-0.0297889	346.412	90.9091
21:22:46.990	18.32	-0.0405966	346.408	90.9091
21:22:47.000	18.33	-0.0425534	346.404	90.9091
21:22:47.010	18.34	-0.0301076	346.4	90.9091
21:22:47.020	18.35	-0.00276846	346.396	90.9091
21:22:47.030	18.36	0.0163957	346.393	90.9091
21:22:47.040	18.37	0.0294022	346.389	90.9091
21:22:47.050	18.38	0.0323184	346.385	90.9091
21:22:47.060	18.39	0.0316016	346.381	90.9091
21:22:47.070	18.4	0.022892	346.377	90.9091
21:22:47.080	18.41	0.0198291	346.373	90.9091
21:22:47.090	18.42	0.0339307	346.369	90.9091
21:22:47.100	18.43	0.0758419	346.365	90.9091
21:22:47.110	18.44	0.100303	346.362	90.9091
21:22:47.120	18.45	0.106342	346.358	90.9091
21:22:47.130	18.46	0.118579	346.354	90.9091
21:22:47.140	18.47	0.138769	346.35	100
21:22:47.150	18.48	0.132127	346.346	100
21:22:47.160	18.49	0.133323	346.342	100
21:22:47.170	18.5	0.128199	346.338	100
21:22:47.180	18.51	0.113308	346.334	100
21:22:47.190	18.52	0.0798316	346.33	100
21:22:47.200	18.53	0.0588877	346.326	100
21:22:47.210	18.54	0.042129	346.322	100
21:22:47.220	18.55	0.0340395	346.318	100
21:22:47.230	18.56	0.0378781	346.314	100
21:22:47.240	18.57	0.0385982	346.31	100
21:22:47.250	18.58	0.0376774	346.306	100
21:22:47.260	18.59	0.0217538	346.302	100
21:22:47.270	18.6	-0.0195727	346.298	100
21:22:47.280	18.61	-0.0513951	346.294	100
21:22:47.290	18.62	-0.0723427	346.29	100
21:22:47.300	18.63	-0.0754339	346.286	100
21:22:47.310	18.64	-0.0899942	346.282	100
21:22:47.320	18.65	-0.09962	346.278	100
21:22:47.330	18.66	-0.0993507	346.274	100
21:22:47.340	18.67	-0.0827607	346.27	100
21:22:47.350	18.68	-0.0759567	346.266	100
21:22:47.360	18.69	-0.0542585	346.262	100
21:22:47.370	18.7	-0.0319772	346.258	100
21:22:47.380	18.71	-0.000958406	346.254	100
21:22:47.390	18.72	-0.0042325	346.25	100
21:22:47.400	18.73	-0.00400795	346.246	100
21:22:47.410	18.74	-0.00294608	346.242	100
21:22:47.420	18.75	0.00389776	346.238	100
21:22:47.430	18.76	0.0332319	346.234	100
21:22:47.440	18.77	0.0494659	346.23	100
21:22:47.450	18.78	0.066043	346.226	100
21:22:47.460	18.79	0.0690456	346.222	100
21:22:47.470	18.8	0.0551737	346.218	100
21:22:47.480	18.81	0.032644	346.214	100
21:22:47.490	18.82	0.0281237	346.21	100
21:22:47.500	18.83	0.0304557	346.206	100
21:22:47.510	18.84	0.0239092	346.202	100
21:22:47.520	18.85	-0.0070968	346.198	100
21:22:47.530	18.86	-0.0470732	346.194	100
21:22:47.540	18.87	-0.0778547	346.19	100
21:22:47.550	18.88	-0.0968984	346.186	100
21:22:47.560	18.89	-0.131804	346.182	100
21:22:47.570	18.9	-0.144754	346.178	100
21:22:47.580	18.91	-0.120902	346.174	100
21:22:47.590	18.92	-0.106086	346.171	100
21:22:47.600	18.93	-0.119773	346.167	100
21:22:47.610	18.94	-0.0916744	346.163	100
21:22:47.620	18.95	-0.0676255	346.159	100
21:22:47.630	18.96	-0.0763644	346.155	100
21:22:47.640	18.97	-0.0885834	346.151	100
21:22:47.650	18.98	-0.0939321	346.147	100
21:22:47.660	18.99	-0.076868	346.143	100
21:22:47.670	19	-0.0565452	346.139	100
21:22:47.680	19.01	-0.0447903	346.135	100
21:22:47.690	19.02	-0.0322792	346.131	100
21:22:47.700	19.03	-0.0162793	346.127	100
21:22:47.710	19.04	0.0236853	346.123	100
21:22:47.720	19.05	0.0914998	346.119	100
21:22:47.730	19.06	0.142215	346.115	100
21:22:47.740	19.07	0.161129	346.111	90.9091
21:22:47.750	19.08	0.160909	346.107	90.9091
21:22:47.760	19.09	0.155194	346.103	90.9091
21:22:47.770	19.1	0.132933	346.099	90.9091
21:22:47.780	19.11	0.0867739	346.095	90.9091
21:22:47.790	19.12	0.0637109	346.091	90.9091
21:22:47.800	19.13	0.0599587	346.087	90.9091
21:22:47.810	19.14	0.0413986	346.083	90.9091
21:22:47.820	19.15	0.0124076	346.079	90.9091
21:22:47.830	19.16	-0.0053537	346.075	90.9091
21:22:47.840	19.17	-0.0275668	346.071	90.9091
21:22:47.850	19.18	-0.0537886	346.067	90.9091
21:22:47.860	19.19	-0.0532101	346.063	90.9091
21:22:47.870	19.2	-0.0510607	346.059	90.9091
21:22:47.880	19.21	-0.0567164	346.055	90.9091
21:22:47.890	19.22	-0.0441802	346.051	90.9091
21:22:47.900	19.23	-0.0248177	346.047	90.9091
21:22:47.910	19.24	-0.0254322	346.044	90.9091
21:22:47.920	19.25	-0.0230229	346.04	90.9091
21:22:47.930	19.26	-0.00248712	346.036	90.9091
21:22:47.940	19.27	0.012179	346.032	90.9091
21:22:47.950	19.28	0.0233225	346.028	90.9091
21:22:47.960	19.29	0.0301684	346.024	90.9091
21:22:47.970	19.3	0.0444083	346.02	90.9091
21:22:47.980	19.31	0.0438066	346.016	90.9091
21:22:47.990	19.32	0.0317496	346.012	90.9091
21:22:48.000	19.33	0.0196625	346.008	90.9091
21:22:48.010	19.34	0.0150762	346.004	90.9091
21:22:48.020	19.35	0.0138096	346	90.9091
21:22:48.030	19.36	0.0183788	345.996	90.9091
21:22:48.040	19.37	0.0489635	345.992	90.9091
21:22:48.050	19.38	0.0794675	345.988	90.9091
21:22:48.060	19.39	0.0866786	345.984	90.9091
21:22:48.070	19.4	0.0921084	345.98	90.9091
21:22:48.080	19.41	0.0766599	345.976	90.9091
21:22:48.090	19.42	0.0588133	345.972	90.9091
21:22:48.100	19.43	0.0309507	345.968	90.9091
21:22:48.110	19.44	0.0200925	345.964	90.9091
21:22:48.120	19.45	0.0231972	345.96	90.9091
21:22:48.130	19.46	0.0289616	345.956	90.9091
21:22:48.140	19.47	0.0513012	345.952	90.9091
21:22:48.150	19.48	0.0813151	345.948	90.9091
21:22:48.160	19.49	0.0743459	345.944	90.9091
21:22:48.170	19.5	0.0595331	345.94	90.9091
21:22:48.180	19.51	0.0719998	345.936	90.9091
21:22:48.190	19.52	0.0829328	345.932	90.9091
21:22:48.200	19.53	0.0704319	345.928	90.9091
21:22:48.210	19.54	0.059552	345.924	90.9091
21:22:48.220	19.55	0.0450406	345.92	90.9091
21:22:48.230	19.56	0.0301338	345.916	90.9091
21:22:48.240	19.57	0.0171386	345.912	90.9091
21:22:48.250	19.58	-0.00369891	345.908	90.9091
21:22:48.260	19.59	-0.0177599	345.904	90.9091
21:22:48.270	19.6	-0.0322368	345.9	90.9091
21:22:48.280	19.61	-0.0346492	345.896	90.9091
21:22:48.290	19.62	-0.0309762	345.892	90.9091
21:22:48.300	19.63	-0.0311553	345.887	90.9091
21:22:48.310	19.64	-0.0506401	345.883	90.9091
21:22:48.320	19.65	-0.0452362	345.879	90.9091
21:22:48.330	19.66	-0.0240491	345.875	90.9091
21:22:48.340	19.67	-0.00426411	345.871	90.9091
21:22:48.350	19.68	0.0288593	345.867	90.9091
21:22:48.360	19.69	0.0676768	345.862	90.9091
21:22:48.370	19.7	0.113385	345.858	90.9091
21:22:48.380	19.71	0.161703	345.854	90.9091
21:22:48.390	19.72	0.184877	345.85	90.9091
21:22:48.400	19.73	0.185726	345.845	90.9091
21:22:48.410	19.74	0.178137	345.841	90.9091
21:22:48.420	19.75	0.171394	345.837	90.9091
21:22:48.430	19.76	0.140631	345.832	90.9091
21:22:48.440	19.77	0.0824299	345.828	90.9091
21:22:48.450	19.78	0.0227496	345.824	90.9091
21:22:48.460	19.79	-0.0336536	345.819	90.9091
21:22:48.470	19.8	-0.0850418	345.815	90.9091
21:22:48.480	19.81	-0.128229	345.81	90.9091
21:22:48.490	19.82	-0.161245	345.806	90.9091
21:22:48.500	19.83	-0.17705	345.801	90.9091
21:22:48.510	19.84	-0.179505	345.797	90.9091
21:22:48.520	19.85	-0.167343	345.792	90.9091
21:22:48.530	19.86	-0.163034	345.787	90.9091
21:22:48.540	19.87	-0.167678	345.783	90.9091
21:22:48.550	19.88	-0.16226	345.778	90.9091
21:22:48.560	19.89	-0.135756	345.773	90.9091
21:22:48.570	19.9	-0.104995	345.768	90.9091
21:22:48.580	19.91	-0.0982073	345.764	90.9091
21:22:48.590	19.92	-0.0863281	345.759	90.9091
21:22:48.600	19.93	-0.0786768	345.754	90.9091
21:22:48.610	19.94	-0.0549283	345.749	90.9091
21:22:48.620	19.95	-0.0351054	345.744	90.9091
21:22:48.630	19.96	-0.0287978	345.739	90.9091
21:22:48.640	19.97	0.00342238	345.734	90.9091
21:22:48.650	19.98	0.0436849	345.729	90.9091
21:22:48.660	19.99	0.0166483	345.724	90.9091
21:22:48.670	20	-0.0165344	345.719	90.9091
21:22:48.680	20.01	0.00162986	345.714	90.9091
21:22:48.690	20.02	-0.00686115	345.708	90.9091
21:22:48.700	20.03	-0.0433645	345.703	90.9091
21:22:48.710	20.04	-0.0247466	345.698	90.9091
21:22:48.720	20.05	-0.0311123	345.692	90.9091
21:22:48.730	20.06	-0.040031	345.687	90.9091
21:22:48.740	20.07	-0.0511366	345.682	90.9091
21:22:48.750	20.08	-0.0565949	345.676	90.9091
21:22:48.760	20.09	-0.0807015	345.671	90.9091
21:22:48.770	20.1	-0.0690108	345.665	90.9091
21:22:48.780	20.11	-0.0447116	345.66	90.9091
21:22:48.790	20.12	-0.0553899	345.654	90.9091
21:22:48.800	20.13	-0.0597913	345.648	90.9091
21:22:48.810	20.14	-0.0144168	345.643	90.9091
21:22:48.820	20.15	-0.00232794	345.637	90.9091
21:22:48.830	20.16	-0.00964487	345.631	90.9091
21:22:48.840	20.17	0.00137956	345.625	90.9091
21:22:48.850	20.18	0.0141707	345.62	90.9091
21:22:48.860	20.19	0.00837344	345.614	90.9091
21:22:48.870	20.2	0.0132248	345.608	90.9091
21:22:48.880	20.21	0.0337889	345.602	90.9091
21:22:48.890	20.22	0.0289052	345.596	90.9091
21:22:48.900	20.23	0.0276737	345.59	90.9091
21:22:48.910	20.24	0.0363408	345.583	90.9091
21:22:48.920	20.25	0.0200567	345.577	90.9091
21:22:48.930	20.26	-0.0199035	345.571	90.9091
21:22:48.940	20.27	-0.0460081	345.565	90.9091
21:22:48.950	20.28	-0.0308268	345.558	90.9091
21:22:48.960	20.29	-0.0186763	345.552	90.9091
21:22:48.970	20.3	-0.0349628	345.545	90.9091
21:22:48.980	20.31	-0.0262988	345.539	90.9091
21:22:48.990	20.32	0.0466832	345.532	90.9091
21:22:49.000	20.33	0.0928701	345.525	90.9091
21:22:49.010	20.34	0.101646	345.519	90.9091
21:22:49.020	20.35	0.166537	345.512	90.9091
21:22:49.030	20.36	0.250152	345.505	90.9091
21:22:49.040	20.37	0.269743	345.498	90.9091
21:22:49.050	20.38	0.266116	345.491	90.9091
21:22:49.060	20.39	0.274089	345.484	230.769
21:22:49.070	20.4	0.25991	345.477	230.769
21:22:49.080	20.41	0.22454	345.469	230.769
21:22:49.090	20.42	0.18488	345.462	230.769
21:22:49.100	20.43	0.140979	345.454	230.769
21:22:49.110	20.44	0.0926659	345.447	230.769
21:22:49.120	20.45	0.0439312	345.439	230.769
21:22:49.130	20.46	0.00265713	345.432	230.769
21:22:49.140	20.47	-0.0337003	345.424	230.769
21:22:49.150	20.48	-0.0461504	345.416	230.769
21:22:49.160	20.49	-0.0465343	345.408	230.769
21:22:49.170	20.5	-0.0661501	345.4	230.769
21:22:49.180	20.51	-0.0789839	345.392	230.769
21:22:49.190	20.52	-0.0584245	345.384	230.769
21:22:49.200	20.53	-0.0601571	345.376	230.769
21:22:49.210	20.54	-0.0791725	345.368	230.769
21:22:49.220	20.55	-0.0653513	345.359	230.769
21:22:49.230	20.56	-0.0479187	345.351	230.769
21:22:49.240	20.57	-0.0451549	345.342	230.769
21:22:49.250	20.58	-0.0232769	345.334	230.769
21:22:49.260	20.59	0.0042905	345.325	230.769
21:22:49.270	20.6	-0.00824805	345.316	230.769
21:22:49.280	20.61	0.0123063	345.308	230.769
21:22:49.290	20.62	0.0456784	345.299	230.769
21:22:49.300	20.63	0.0325159	345.29	230.769
21:22:49.310	20.64	0.0892554	345.28	230.769
21:22:49.320	20.65	0.140467	345.271	153.846
21:22:49.330	20.66	0.0897118	345.262	153.846
21:22:49.340	20.67	0.0574401	345.253	153.846
21:22:49.350	20.68	0.0865972	345.243	153.846
21:22:49.360	20.69	0.0675842	345.234	153.846
21:22:49.370	20.7	0.0181967	345.224	153.846
21:22:49.380	20.71	0.00484389	345.214	153.846
21:22:49.390	20.72	-0.00104115	345.205	153.846
21:22:49.400	20.73	-0.0114225	345.195	153.846
21:22:49.410	20.74	-0.0276363	345.185	153.846
21:22:49.420	20.75	-0.0252722	345.175	153.846
21:22:49.430	20.76	-0.0112505	345.164	153.846
21:22:49.440	20.77	-0.00361896	345.154	153.846
21:22:49.450	20.78	0.00278131	345.144	153.846
21:22:49.460	20.79	-0.00348202	345.133	153.846
21:22:49.470	20.8	-0.0446258	345.123	153.846
21:22:49.480	20.81	-0.0532002	345.112	153.846
21:22:49.490	20.82	-0.00837666	345.101	153.846
21:22:49.500	20.83	-0.0704821	345.09	153.846
21:22:49.510	20.84	-0.108319	345.079	153.846
21:22:49.520	20.85	-0.00174506	345.068	153.846
21:22:49.530	20.86	0.0393744	345.057	153.846
21:22:49.540	20.87	-0.0014516	345.046	153.846
21:22:49.550	20.88	0.0381935	345.034	153.846
21:22:49.560	20.89	0.0796172	345.023	153.846
21:22:49.570	20.9	0.0306334	345.011	153.846
21:22:49.580	20.91	-0.0442258	344.999	153.846
21:22:49.590	20.92	-0.0535315	344.988	153.846
21:22:49.600	20.93	-0.0424869	344.975	153.846
21:22:49.610	20.94	-0.0167279	344.963	153.846
21:22:49.620	20.95	-0.0178523	344.951	153.846
21:22:49.630	20.96	0.00449995	344.939	153.846
21:22:49.640	20.97	0.0269428	344.926	153.846
21:22:49.650	20.98	-0.0288914	344.913	153.846
21:22:49.660	20.99	-0.0321801	344.9	153.846
21:22:49.670	21	0.0495828	344.887	153.846
21:22:49.680	21.01	0.0697562	344.874	153.846
21:22:49.690	21.02	0.0773351	344.861	153.846
21:22:49.700	21.03	0.171471	344.847	153.846
21:22:49.710	21.04	0.239552	344.834	80
21:22:49.720	21.05	0.238069	344.82	80
21:22:49.730	21.06	0.221314	344.806	80
21:22:49.740	21.07	0.213705	344.792	80
21:22:49.750	21.08	0.207695	344.778	80
21:22:49.760	21.09	0.186164	344.763	80
21:22:49.770	21.1	0.118362	344.749	80
21:22:49.780	21.11	0.050659	344.734	80
21:22:49.790	21.12	0.0217808	344.719	80
21:22:49.800	21.13	-0.00751364	344.704	80
21:22:49.810	21.14	-0.0460997	344.689	80
21:22:49.820	21.15	-0.055686	344.674	80
21:22:49.830	21.16	-0.0529799	344.658	80
21:22:49.840	21.17	-0.0741263	344.643	80
21:22:49.850	21.18	-0.0922368	344.627	80
21:22:49.860	21.19	-0.112199	344.611	80
21:22:49.870	21.2	-0.144482	344.595	80
21:22:49.880	21.21	-0.155562	344.579	80
21:22:49.890	21.22	-0.1383	344.563	80
21:22:49.900	21.23	-0.142286	344.546	80
21:22:49.910	21.24	-0.13821	344.529	80
21:22:49.920	21.25	-0.108453	344.513	80
21:22:49.930	21.26	-0.133653	344.496	80
21:22:49.940	21.27	-0.155966	344.479	80
21:22:49.950	21.28	-0.102258	344.462	80
21:22:49.960	21.29	-0.0700663	344.445	80
21:22:49.970	21.3	-0.0775908	344.427	80
21:22:49.980	21.31	-0.0349954	344.41	80
21:22:49.990	21.32	0.00865682	344.392	80
21:22:50.000	21.33	-0.00440617	344.374	80
21:22:50.010	21.34	-0.0226369	344.357	80
21:22:50.020	21.35	-0.0207516	344.339	80
21:22:50.030	21.36	-0.0315348	344.321	80
21:22:50.040	21.37	-0.0599506	344.303	80
21:22:50.050	21.38	-0.0824925	344.284	80
21:22:50.060	21.39	-0.0813429	344.266	80
21:22:50.070	21.4	-0.0681302	344.248	80
21:22:50.080	21.41	-0.0704255	344.229	80
21:22:50.090	21.42	-0.0861928	344.211	80
21:22:50.100	21.43	-0.0953551	344.192	80
21:22:50.110	21.44	-0.0946297	344.173	80
21:22:50.120	21.45	-0.093053	344.154	80
21:22:50.130	21.46	-0.0905253	344.135	80
21:22:50.140	21.47	-0.0801057	344.116	80
21:22:50.150	21.48	-0.0519546	344.097	80
21:22:50.160	21.49	-0.0194755	344.078	80
21:22:50.170	21.5	-0.00185781	344.059	80
21:22:50.180	21.51	0.0164032	344.039	80
21:22:50.190	21.52	0.038884	344.02	80
21:22:50.200	21.53	0.0585867	344	80
21:22:50.210	21.54	0.0603938	343.981	80
21:22:50.220	21.55	0.0486952	343.961	80
21:22:50.230	21.56	0.0396752	343.941	80
21:22:50.240	21.57	0.0404389	343.921	80
21:22:50.250	21.58	0.0483987	343.901	80
21:22:50.260	21.59	0.0461654	343.881	80
21:22:50.270	21.6	0.037173	343.861	80
21:22:50.280	21.61	0.0311643	343.841	80
21:22:50.290	21.62	0.016293	343.821	80
21:22:50.300	21.63	0.00163118	343.8	80
21:22:50.310	21.64	-0.00826458	343.78	80
21:22:50.320	21.65	0.00156584	343.759	80
21:22:50.330	21.66	0.0305207	343.739	80
21:22:50.340	21.67	0.064996	343.718	80
21:22:50.350	21.68	0.0733161	343.697	80
21:22:50.360	21.69	0.0822493	343.677	80
21:22:50.370	21.7	0.0898417	343.656	80
21:22:50.380	21.71	0.0925161	343.635	80
21:22:50.390	21.72	0.091855	343.613	80
21:22:50.400	21.73	0.127722	343.592	80
21:22:50.410	21.74	0.19367	343.571	80
21:22:50.420	21.75	0.24019	343.549	80
21:22:50.430	21.76	0.288698	343.528	80
21:22:50.440	21.77	0.310424	343.506	80
21:22:50.450	21.78	0.3221	343.485	80
21:22:50.460	21.79	0.352775	343.463	130.435
21:22:50.470	21.8	0.334852	343.441	130.435
21:22:50.480	21.81	0.23519	343.419	130.435
21:22:50.490	21.82	0.105684	343.397	130.435
21:22:50.500	21.83	0.0667522	343.375	130.435
21:22:50.510	21.84	0.0121499	343.352	130.435
21:22:50.520	21.85	-0.0232432	343.33	130.435
21:22:50.530	21.86	-0.0874032	343.307	130.435
21:22:50.540	21.87	-0.242078	343.284	130.435
21:22:50.550	21.88	-0.420548	343.262	130.435
21:22:50.560	21.89	-0.499973	343.239	130.435
21:22:50.570	21.9	-0.517885	343.215	130.435
21:22:50.580	21.91	-0.550564	343.192	130.435
21:22:50.590	21.92	-0.500432	343.169	130.435
21:22:50.600	21.93	-0.287348	343.145	130.435
21:22:50.610	21.94	-0.168474	343.121	130.435
21:22:50.620	21.95	-0.223298	343.097	130.435
21:22:50.630	21.96	-0.286944	343.073	130.435
21:22:50.640	21.97	-0.281259	343.049	130.435
21:22:50.650	21.98	-0.241259	343.025	130.435
21:22:50.660	21.99	-0.249958	343	130.435
21:22:50.670	22	-0.24466	342.976	130.435
21:22:50.680	22.01	-0.192007	342.951	130.435
21:22:50.690	22.02	-0.103088	342.926	130.435
21:22:50.700	22.03	-0.0615188	342.901	130.435
21:22:50.710	22.04	-0.0313851	342.875	130.435
21:22:50.720	22.05	0.0225233	342.85	130.435
21:22:50.730	22.06	0.000971191	342.824	130.435
21:22:50.740	22.07	0.0184574	342.798	130.435
21:22:50.750	22.08	0.0076238	342.772	130.435
21:22:50.760	22.09	-0.0280953	342.746	130.435
21:22:50.770	22.1	-0.0315862	342.72	130.435
21:22:50.780	22.11	-0.0274447	342.693	130.435
21:22:50.790	22.12	-0.082105	342.667	130.435
21:22:50.800	22.13	-0.129418	342.64	130.435
21:22:50.810	22.14	-0.128124	342.613	130.435
21:22:50.820	22.15	-0.131745	342.586	130.435
21:22:50.830	22.16	-0.155309	342.559	130.435
21:22:50.840	22.17	-0.190318	342.532	130.435
21:22:50.850	22.18	-0.156518	342.504	130.435
21:22:50.860	22.19	-0.0496277	342.477	130.435
21:22:50.870	22.2	0.069632	342.449	130.435
21:22:50.880	22.21	0.174628	342.421	130.435
21:22:50.890	22.22	0.212189	342.393	130.435
21:22:50.900	22.23	0.18242	342.365	130.435
21:22:50.910	22.24	0.338185	342.337	130.435
21:22:50.920	22.25	0.568955	342.309	222.222
21:22:50.930	22.26	0.404897	342.281	222.222
21:22:50.940	22.27	0.435931	342.252	222.222
21:22:50.950	22.28	0.424318	342.224	222.222
21:22:50.960	22.29	0.402635	342.195	222.222
21:22:50.970	22.3	0.258835	342.166	222.222
21:22:50.980	22.31	0.17944	342.138	222.222
21:22:50.990	22.32	0.123642	342.109	222.222
21:22:51.000	22.33	0.0808012	342.08	222.222
21:22:51.010	22.34	0.0643294	342.051	222.222
21:22:51.020	22.35	0.0234804	342.022	222.222
21:22:51.030	22.36	-0.0221358	341.993	222.222
21:22:51.040	22.37	-0.0354885	341.963	222.222
21:22:51.050	22.38	-0.0549899	341.934	222.222
21:22:51.060	22.39	-0.0594132	341.905	222.222
21:22:51.070	22.4	-0.0611384	341.875	222.222
21:22:51.080	22.41	-0.0493031	341.846	222.222
21:22:51.090	22.42	-0.0131003	341.816	222.222
21:22:51.100	22.43	-0.00136919	341.786	222.222
21:22:51.110	22.44	-0.0211235	341.757	222.222
21:22:51.120	22.45	-0.000871922	341.727	222.222
21:22:51.130	22.46	0.040455	341.697	222.222
21:22:51.140	22.47	0.0591829	341.667	222.222
21:22:51.150	22.48	0.136396	341.638	222.222
21:22:51.160	22.49	0.353398	341.608	222.222
21:22:51.170	22.5	0.381533	341.578	222.222
21:22:51.180	22.51	0.468887	341.548	222.222
21:22:51.190	22.52	0.502156	341.518	206.897
21:22:51.200	22.53	0.468126	341.488	206.897
21:22:51.210	22.54	0.444806	341.458	206.897
21:22:51.220	22.55	0.41122	341.428	206.897
21:22:51.230	22.56	0.356429	341.398	206.897
21:22:51.240	22.57	0.290821	341.368	206.897
21:22:51.250	22.58	0.235082	341.338	206.897
21:22:51.260	22.59	0.138454	341.307	206.897
21:22:51.270	22.6	0.0676601	341.277	206.897
21:22:51.280	22.61	-0.0248952	341.247	206.897
21:22:51.290	22.62	-0.109643	341.217	206.897
21:22:51.300	22.63	-0.136266	341.187	206.897
21:22:51.310	22.64	-0.137417	341.157	206.897
21:22:51.320	22.65	-0.153384	341.127	206.897
21:22:51.330	22.66	-0.167583	341.097	206.897
21:22:51.340	22.67	-0.141869	341.067	206.897
21:22:51.350	22.68	-0.117057	341.037	206.897
21:22:51.360	22.69	-0.126639	341.007	206.897
21:22:51.370	22.7	-0.138372	340.977	206.897
21:22:51.380	22.71	-0.138353	340.947	206.897
21:22:51.390	22.72	-0.140139	340.917	206.897
21:22:51.400	22.73	-0.126007	340.887	206.897
21:22:51.410	22.74	-0.1243	340.858	206.897
21:22:51.420	22.75	-0.11817	340.828	206.897
21:22:51.430	22.76	-0.0702766	340.798	206.897
21:22:51.440	22.77	0.0049465	340.768	206.897
21:22:51.450	22.78	0.141183	340.739	206.897
21:22:51.460	22.79	0.303563	340.709	206.897
21:22:51.470	22.8	0.411059	340.679	206.897
21:22:51.480	22.81	0.48289	340.65	171.429
21:22:51.490	22.82	0.476992	340.62	171.429
21:22:51.500	22.83	0.436665	340.591	171.429
21:22:51.510	22.84	0.382831	340.561	171.429
21:22:51.520	22.85	0.316814	340.531	171.429
21:22:51.530	22.86	0.265511	340.502	171.429
21:22:51.540	22.87	0.234148	340.473	171.429
21:22:51.550	22.88	0.199131	340.443	171.429
21:22:51.560	22.89	0.177292	340.414	171.429
21:22:51.570	22.9	0.182663	340.384	171.429
21:22:51.580	22.91	0.147151	340.355	171.429
21:22:51.590	22.92	0.190984	340.326	171.429
21:22:51.600	22.93	0.197063	340.296	171.429
21:22:51.610	22.94	0.0994883	340.267	171.429
21:22:51.620	22.95	0.0179914	340.238	171.429
21:22:51.630	22.96	-0.051131	340.209	171.429
21:22:51.640	22.97	-0.142045	340.179	171.429
21:22:51.650	22.98	-0.260353	340.15	171.429
21:22:51.660	22.99	-0.30613	340.121	171.429
21:22:51.670	23	-0.290663	340.092	171.429
21:22:51.680	23.01	-0.271887	340.062	171.429
21:22:51.690	23.02	-0.275519	340.033	171.429
21:22:51.700	23.03	-0.271958	340.004	171.429
21:22:51.710	23.04	-0.277711	339.975	171.429
21:22:51.720	23.05	-0.294963	339.946	171.429
21:22:51.730	23.06	-0.291931	339.916	171.429
21:22:51.740	23.07	-0.244211	339.887	171.429
21:22:51.750	23.08	-0.172321	339.858	171.429
21:22:51.760	23.09	-0.0984611	339.829	171.429
21:22:51.770	23.1	-0.0363167	339.8	171.429
21:22:51.780	23.11	0.041664	339.77	171.429
21:22:51.790	23.12	0.14043	339.741	171.429
21:22:51.800	23.13	0.205643	339.712	171.429
21:22:51.810	23.14	0.253992	339.683	171.429
21:22:51.820	23.15	0.271619	339.653	171.429
21:22:51.830	23.16	0.287689	339.624	176.471
21:22:51.840	23.17	0.286403	339.595	176.471
21:22:51.850	23.18	0.274201	339.565	176.471
21:22:51.860	23.19	0.221332	339.536	176.471
21:22:51.870	23.2	0.112503	339.506	176.471
21:22:51.880	23.21	0.0012061	339.476	176.471
21:22:51.890	23.22	-0.143973	339.447	176.471
21:22:51.900	23.23	-0.24324	339.417	176.471
21:22:51.910	23.24	-0.269927	339.387	176.471
21:22:51.920	23.25	-0.21674	339.357	176.471
21:22:51.930	23.26	-0.129136	339.327	176.471
21:22:51.940	23.27	-0.0589182	339.297	176.471
21:22:51.950	23.28	0.0132308	339.267	176.471
21:22:51.960	23.29	0.0174379	339.236	176.471
21:22:51.970	23.3	-0.137343	339.206	176.471
21:22:51.980	23.31	-0.397904	339.175	176.471
21:22:51.990	23.32	-0.661626	339.145	176.471
21:22:52.000	23.33	-0.769981	339.114	176.471
21:22:52.010	23.34	-0.757502	339.083	176.471
21:22:52.020	23.35	-0.757132	339.052	176.471
21:22:52.030	23.36	-0.711847	339.021	176.471
21:22:52.040	23.37	-0.516681	338.99	176.471
21:22:52.050	23.38	-0.377554	338.958	176.471
21:22:52.060	23.39	-0.262197	338.927	176.471
21:22:52.070	23.4	-0.139762	338.896	176.471
21:22:52.080	23.41	-0.0310315	338.864	176.471
21:22:52.090	23.42	0.124725	338.832	176.471
21:22:52.100	23.43	0.2375	338.801	176.471
21:22:52.110	23.44	0.322582	338.769	176.471
21:22:52.120	23.45	0.428989	338.737	176.471
21:22:52.130	23.46	0.533057	338.704	176.471
21:22:52.140	23.47	0.579235	338.672	176.471
21:22:52.150	23.48	0.572779	338.64	176.471
21:22:52.160	23.49	0.601517	338.608	176.471
21:22:52.170	23.5	0.615405	338.575	136.364
21:22:52.180	23.51	0.555234	338.542	136.364
21:22:52.190	23.52	0.454813	338.51	136.364
21:22:52.200	23.53	0.334546	338.477	136.364
21:22:52.210	23.54	0.178857	338.444	136.364
21:22:52.220	23.55	0.0684311	338.411	136.364
21:22:52.230	23.56	0.0182355	338.378	136.364
21:22:52.240	23.57	0.00443882	338.344	136.364
21:22:52.250	23.58	0.00506785	338.311	136.364
21:22:52.260	23.59	0.00161257	338.278	136.364
21:22:52.270	23.6	0.0139406	338.244	136.364
21:22:52.280	23.61	0.00420578	338.211	136.364
21:22:52.290	23.62	-0.0226406	338.177	136.364
21:22:52.300	23.63	-0.0377012	338.143	136.364
21:22:52.310	23.64	-0.0379581	338.11	136.364
21:22:52.320	23.65	-0.0275984	338.076	136.364
21:22:52.330	23.66	-0.0228408	338.042	136.364
21:22:52.340	23.67	-0.0569664	338.008	136.364
21:22:52.350	23.68	-0.12099	337.974	136.364
21:22:52.360	23.69	-0.188764	337.94	136.364
21:22:52.370	23.7	-0.282931	337.906	136.364
21:22:52.380	23.71	-0.374768	337.872	136.364
21:22:52.390	23.72	-0.452101	337.838	136.364
21:22:52.400	23.73	-0.499827	337.803	136.364
21:22:52.410	23.74	-0.501172	337.769	136.364
21:22:52.420	23.75	-0.522407	337.735	136.364
21:22:52.430	23.76	-0.49621	337.7	136.364
21:22:52.440	23.77	-0.453083	337.666	136.364
21:22:52.450	23.78	-0.385415	337.631	136.364
21:22:52.460	23.79	-0.333841	337.596	136.364
21:22:52.470	23.8	-0.295692	337.562	136.364
21:22:52.480	23.81	-0.209395	337.527	136.364
21:22:52.490	23.82	-0.095796	337.492	136.364
21:22:52.500	23.83	0.0386997	337.457	136.364
21:22:52.510	23.84	0.19635	337.422	136.364
21:22:52.520	23.85	0.30235	337.387	136.364
21:22:52.530	23.86	0.317891	337.352	136.364
21:22:52.540	23.87	0.33171	337.317	136.364
21:22:52.550	23.88	0.359675	337.281	136.364
21:22:52.560	23.89	0.356683	337.246	136.364
21:22:52.570	23.9	0.3421	337.21	136.364
21:22:52.580	23.91	0.345786	337.175	136.364
21:22:52.590	23.92	0.395508	337.139	136.364
21:22:52.600	23.93	0.476249	337.103	136.364
21:22:52.610	23.94	0.520161	337.067	81.0811
21:22:52.620	23.95	0.512916	337.031	81.0811
21:22:52.630	23.96	0.517733	336.995	81.0811
21:22:52.640	23.97	0.507386	336.958	81.0811
21:22:52.650	23.98	0.469031	336.922	81.0811
21:22:52.660	23.99	0.382834	336.885	81.0811
21:22:52.670	24	0.280155	336.848	81.0811
21:22:52.680	24.01	0.199978	336.811	81.0811
21:22:52.690	24.02	0.123315	336.774	81.0811
21:22:52.700	24.03	0.0490115	336.737	81.0811
21:22:52.710	24.04	0.00110813	336.699	81.0811
21:22:52.720	24.05	-0.0682768	336.661	81.0811
21:22:52.730	24.06	-0.121384	336.624	81.0811
21:22:52.740	24.07	-0.14661	336.585	81.0811
21:22:52.750	24.08	-0.150111	336.547	81.0811
21:22:52.760	24.09	-0.105287	336.509	81.0811
21:22:52.770	24.1	-0.145261	336.47	81.0811
21:22:52.780	24.11	-0.162232	336.431	81.0811
21:22:52.790	24.12	-0.14637	336.392	81.0811
21:22:52.800	24.13	-0.171408	336.352	81.0811
21:22:52.810	24.14	-0.190681	336.313	81.0811
21:22:52.820	24.15	-0.173049	336.273	81.0811
21:22:52.830	24.16	-0.14371	336.233	81.0811
21:22:52.840	24.17	-0.133594	336.192	81.0811
21:22:52.850	24.18	-0.127687	336.152	81.0811
21:22:52.860	24.19	-0.122232	336.111	81.0811
21:22:52.870	24.2	-0.110327	336.07	81.0811
21:22:52.880	24.21	-0.0672506	336.028	81.0811
21:22:52.890	24.22	-0.0557207	335.987	81.0811
21:22:52.900	24.23	-0.0396689	335.945	81.0811
21:22:52.910	24.24	-0.00401792	335.902	81.0811
21:22:52.920	24.25	0.0424835	335.86	81.0811
21:22:52.930	24.26	0.0707605	335.817	81.0811
21:22:52.940	24.27	0.0945148	335.773	81.0811
21:22:52.950	24.28	0.0956623	335.73	81.0811
21:22:52.960	24.29	0.0852837	335.686	81.0811
21:22:52.970	24.3	0.0743107	335.641	81.0811
21:22:52.980	24.31	0.0587495	335.597	81.0811
21:22:52.990	24.32	0.0338403	335.551	81.0811
21:22:53.000	24.33	0.00987138	335.506	81.0811
21:22:53.010	24.34	-0.0109255	335.46	81.0811
21:22:53.020	24.35	-0.0240227	335.413	81.0811
21:22:53.030	24.36	-0.0321094	335.366	81.0811
21:22:53.040	24.37	-0.0536744	335.319	81.0811
21:22:53.050	24.38	-0.0576337	335.271	81.0811
21:22:53.060	24.39	-0.047967	335.223	81.0811
21:22:53.070	24.4	-0.0566142	335.174	81.0811
21:22:53.080	24.41	-0.0506997	335.125	81.0811
21:22:53.090	24.42	-0.0312287	335.075	81.0811
21:22:53.100	24.43	-0.0252696	335.025	81.0811
21:22:53.110	24.44	-0.0195812	334.974	81.0811
21:22:53.120	24.45	0.00828524	334.922	81.0811
21:22:53.130	24.46	0.0252742	334.87	81.0811
21:22:53.140	24.47	0.0405459	334.818	81.0811
21:22:53.150	24.48	0.0702578	334.764	81.0811
21:22:53.160	24.49	0.0827157	334.711	81.0811
21:22:53.170	24.5	0.0931008	334.656	81.0811
21:22:53.180	24.51	0.0992269	334.601	81.0811
21:22:53.190	24.52	0.126729	334.546	81.0811
21:22:53.200	24.53	0.121327	334.49	81.0811
21:22:53.210	24.54	0.0791418	334.433	81.0811
21:22:53.220	24.55	0.0730703	334.375	81.0811
21:22:53.230	24.56	0.0965175	334.317	81.0811
21:22:53.240	24.57	0.111339	334.259	81.0811
21:22:53.250	24.58	0.12284	334.2	81.0811
21:22:53.260	24.59	0.120254	334.14	81.0811
21:22:53.270	24.6	0.13122	334.079	81.0811
21:22:53.280	24.61	0.145212	334.019	81.0811
21:22:53.290	24.62	0.148858	333.957	81.0811
21:22:53.300	24.63	0.176761	333.895	81.0811
21:22:53.310	24.64	0.191297	333.832	81.0811
21:22:53.320	24.65	0.199167	333.769	81.0811
21:22:53.330	24.66	0.210859	333.705	81.0811
21:22:53.340	24.67	0.223418	333.641	81.0811
21:22:53.350	24.68	0.24235	333.576	58.8235
21:22:53.360	24.69	0.223716	333.511	58.8235
21:22:53.370	24.7	0.166581	333.445	58.8235
21:22:53.380	24.71	0.140066	333.379	58.8235
21:22:53.390	24.72	0.126984	333.312	58.8235
21:22:53.400	24.73	0.090329	333.245	58.8235
21:22:53.410	24.74	0.0722015	333.178	58.8235
21:22:53.420	24.75	0.0868658	333.109	58.8235
21:22:53.430	24.76	0.0908199	333.041	58.8235
21:22:53.440	24.77	0.033797	332.972	58.8235
21:22:53.450	24.78	-0.00105109	332.902	58.8235
21:22:53.460	24.79	-0.0244816	332.833	58.8235
21:22:53.470	24.8	-0.0619521	332.762	58.8235
21:22:53.480	24.81	-0.0871878	332.691	58.8235
21:22:53.490	24.82	-0.119385	332.62	58.8235
21:22:53.500	24.83	-0.150623	332.549	58.8235
21:22:53.510	24.84	-0.122802	332.477	58.8235
21:22:53.520	24.85	-0.100007	332.404	58.8235
21:22:53.530	24.86	-0.109025	332.332	58.8235
21:22:53.540	24.87	-0.13283	332.259	58.8235
21:22:53.550	24.88	-0.138726	332.185	58.8235
21:22:53.560	24.89	-0.131263	332.111	58.8235
21:22:53.570	24.9	-0.105775	332.037	58.8235
21:22:53.580	24.91	-0.117227	331.962	58.8235
21:22:53.590	24.92	-0.140337	331.886	58.8235
21:22:53.600	24.93	-0.166057	331.811	58.8235
21:22:53.610	24.94	-0.173721	331.734	58.8235
21:22:53.620	24.95	-0.235855	331.658	58.8235
21:22:53.630	24.96	-0.294252	331.581	58.8235
21:22:53.640	24.97	-0.283752	331.503	58.8235
21:22:53.650	24.98	-0.289084	331.425	58.8235
21:22:53.660	24.99	-0.282476	331.346	58.8235
21:22:53.670	25	-0.249081	331.267	58.8235
21:22:53.680	25.01	-0.1996	331.187	58.8235
21:22:53.690	25.02	-0.145673	331.107	58.8235
21:22:53.700	25.03	-0.0955299	331.026	58.8235
21:22:53.710	25.04	-0.0591083	330.945	58.8235
21:22:53.720	25.05	-0.0199751	330.863	58.8235
21:22:53.730	25.06	0.0180857	330.78	58.8235
21:22:53.740	25.07	0.0524051	330.697	58.8235
21:22:53.750	25.08	0.0731618	330.613	58.8235
21:22:53.760	25.09	0.0775833	330.528	58.8235
21:22:53.770	25.1	0.063935	330.442	58.8235
21:22:53.780	25.11	0.0377268	330.356	58.8235
21:22:53.790	25.12	-0.0720644	330.269	58.8235
21:22:53.800	25.13	-0.127389	330.182	58.8235
21:22:53.810	25.14	-0.221153	330.093	58.8235
21:22:53.820	25.15	-0.252182	330.004	58.8235
21:22:53.830	25.16	-0.281342	329.914	58.8235
21:22:53.840	25.17	-0.289824	329.823	58.8235
21:22:53.850	25.18	-0.248067	329.731	58.8235
21:22:53.860	25.19	-0.232194	329.639	58.8235
21:22:53.870	25.2	-0.242882	329.545	58.8235
21:22:53.880	25.21	-0.263094	329.451	58.8235
21:22:53.890	25.22	-0.262171	329.356	58.8235
21:22:53.900	25.23	-0.244072	329.26	58.8235
21:22:53.910	25.24	-0.229278	329.163	58.8235
21:22:53.920	25.25	-0.21237	329.065	58.8235
21:22:53.930	25.26	-0.189191	328.967	58.8235
21:22:53.940	25.27	-0.182934	328.867	58.8235
21:22:53.950	25.28	-0.161498	328.767	58.8235
21:22:53.960	25.29	-0.121291	328.666	58.8235
21:22:53.970	25.3	-0.0555535	328.564	58.8235
21:22:53.980	25.31	0.00475887	328.461	58.8235
21:22:53.990	25.32	-0.012445	328.358	58.8235
21:22:54.000	25.33	-0.0101727	328.253	58.8235
21:22:54.010	25.34	0.0117978	328.148	58.8235
21:22:54.020	25.35	0.0278465	328.042	58.8235
21:22:54.030	25.36	0.00552459	327.936	58.8235
21:22:54.040	25.37	-0.0346067	327.828	58.8235
21:22:54.050	25.38	-0.0489228	327.72	58.8235
21:22:54.060	25.39	-0.0570652	327.611	58.8235
21:22:54.070	25.4	-0.065692	327.501	58.8235
21:22:54.080	25.41	-0.0707279	327.391	58.8235
21:22:54.090	25.42	-0.0964918	327.28	58.8235
21:22:54.100	25.43	-0.161608	327.169	58.8235
21:22:54.110	25.44	-0.228035	327.057	58.8235
21:22:54.120	25.45	-0.25265	326.944	58.8235
21:22:54.130	25.46	-0.221434	326.831	58.8235
21:22:54.140	25.47	-0.145621	326.718	58.8235
21:22:54.150	25.48	-0.117867	326.604	58.8235
21:22:54.160	25.49	-0.0889999	326.49	58.8235
21:22:54.170	25.5	-0.0872801	326.375	58.8235
21:22:54.180	25.51	-0.0900584	326.26	58.8235
21:22:54.190	25.52	-0.0865055	326.144	58.8235
21:22:54.200	25.53	-0.114146	326.029	58.8235
21:22:54.210	25.54	-0.149008	325.913	58.8235
21:22:54.220	25.55	-0.0960819	325.797	58.8235
21:22:54.230	25.56	0.0270524	325.68	58.8235
21:22:54.240	25.57	0.1456	325.564	58.8235
21:22:54.250	25.58	0.240546	325.447	58.8235
21:22:54.260	25.59	0.295739	325.33	58.8235
21:22:54.270	25.6	0.322488	325.214	58.8235
21:22:54.280	25.61	0.285851	325.097	58.8235
21:22:54.290	25.62	0.318472	324.98	58.8235
21:22:54.300	25.63	0.287829	324.863	58.8235
21:22:54.310	25.64	0.269898	324.747	58.8235
21:22:54.320	25.65	0.277958	324.63	58.8235
21:22:54.330	25.66	0.296702	324.514	58.8235
21:22:54.340	25.67	0.344439	324.398	58.8235
21:22:54.350	25.68	0.374687	324.282	58.8235
21:22:54.360	25.69	0.411172	324.166	58.8235
21:22:54.370	25.7	0.430574	324.051	181.818
21:22:54.380	25.71	0.398096	323.936	181.818
21:22:54.390	25.72	0.310882	323.821	181.818
21:22:54.400	25.73	0.281176	323.707	181.818
21:22:54.410	25.74	0.205993	323.593	181.818
21:22:54.420	25.75	0.116894	323.48	181.818
21:22:54.430	25.76	0.0736833	323.367	181.818
21:22:54.440	25.77	0.0283475	323.254	181.818
21:22:54.450	25.78	0.00989095	323.142	181.818
21:22:54.460	25.79	0.0197646	323.03	181.818
21:22:54.470	25.8	0.0325601	322.919	181.818
21:22:54.480	25.81	0.00128275	322.809	181.818
21:22:54.490	25.82	-0.0576696	322.699	181.818
21:22:54.500	25.83	-0.105613	322.589	181.818
21:22:54.510	25.84	-0.137469	322.48	181.818
21:22:54.520	25.85	-0.155198	322.372	181.818
21:22:54.530	25.86	-0.167958	322.264	181.818
21:22:54.540	25.87	-0.180923	322.157	181.818
21:22:54.550	25.88	-0.164177	322.05	181.818
21:22:54.560	25.89	-0.120893	321.944	181.818
21:22:54.570	25.9	-0.103923	321.839	181.818
21:22:54.580	25.91	-0.112845	321.734	181.818
21:22:54.590	25.92	-0.0668254	321.629	181.818
21:22:54.600	25.93	0.0541287	321.525	181.818
21:22:54.610	25.94	0.176794	321.422	181.818
21:22:54.620	25.95	0.232839	321.319	181.818
21:22:54.630	25.96	0.250141	321.217	181.818
21:22:54.640	25.97	0.266194	321.115	181.818
21:22:54.650	25.98	0.254359	321.013	181.818
21:22:54.660	25.99	0.222867	320.912	181.818
21:22:54.670	26	0.196616	320.812	181.818
21:22:54.680	26.01	0.24382	320.712	181.818
21:22:54.690	26.02	0.306528	320.612	181.818
21:22:54.700	26.03	0.312249	320.513	93.75
21:22:54.710	26.04	0.23197	320.414	93.75
21:22:54.720	26.05	0.130041	320.316	93.75
21:22:54.730	26.06	0.151606	320.217	93.75
21:22:54.740	26.07	0.131095	320.12	93.75
21:22:54.750	26.08	-0.0561629	320.022	93.75
21:22:54.760	26.09	-0.123705	319.925	93.75
21:22:54.770	26.1	-0.148053	319.828	93.75
21:22:54.780	26.11	-0.172849	319.731	93.75
21:22:54.790	26.12	-0.187943	319.634	93.75
21:22:54.800	26.13	-0.275632	319.538	93.75
21:22:54.810	26.14	-0.315069	319.442	93.75
21:22:54.820	26.15	-0.228536	319.346	93.75
21:22:54.830	26.16	-0.136635	319.25	93.75
21:22:54.840	26.17	-0.123736	319.154	93.75
21:22:54.850	26.18	-0.0531013	319.058	93.75
21:22:54.860	26.19	0.0246274	318.963	93.75
21:22:54.870	26.2	0.0334494	318.867	93.75
21:22:54.880	26.21	-0.0242811	318.771	93.75
21:22:54.890	26.22	-0.0478785	318.675	93.75
21:22:54.900	26.23	-0.00733641	318.579	93.75
21:22:54.910	26.24	0.0292867	318.483	93.75
21:22:54.920	26.25	0.0411337	318.387	93.75
21:22:54.930	26.26	0.0460139	318.29	93.75
21:22:54.940	26.27	0.0540211	318.193	93.75
21:22:54.950	26.28	0.0681438	318.096	93.75
21:22:54.960	26.29	0.0156605	317.998	93.75
21:22:54.970	26.3	-0.0607836	317.9	93.75
21:22:54.980	26.31	-0.101869	317.801	93.75
21:22:54.990	26.32	-0.140562	317.702	93.75
21:22:55.000	26.33	-0.174245	317.602	93.75
21:22:55.010	26.34	-0.180532	317.501	93.75
21:22:55.020	26.35	-0.139871	317.4	93.75
21:22:55.030	26.36	-0.117519	317.298	93.75
21:22:55.040	26.37	-0.131831	317.195	93.75
21:22:55.050	26.38	-0.108773	317.091	93.75
21:22:55.060	26.39	-0.0300424	316.986	93.75
21:22:55.070	26.4	0.0465898	316.88	93.75
21:22:55.080	26.41	0.0577887	316.773	93.75
21:22:55.090	26.42	0.0451333	316.664	93.75
21:22:55.100	26.43	0.0845434	316.554	93.75
21:22:55.110	26.44	0.118717	316.442	93.75
21:22:55.120	26.45	0.0957469	316.329	93.75
21:22:55.130	26.46	0.0762838	316.213	93.75
21:22:55.140	26.47	0.0458641	316.096	93.75
21:22:55.150	26.48	-0.0538824	315.976	93.75
21:22:55.160	26.49	-0.0242631	315.854	93.75
21:22:55.170	26.5	-0.0550716	315.73	93.75
21:22:55.180	26.51	-0.0369103	315.603	93.75
21:22:55.190	26.52	-0.0800949	315.473	93.75
21:22:55.200	26.53	-0.100357	315.341	93.75
21:22:55.210	26.54	-0.124355	315.205	93.75
21:22:55.220	26.55	-0.163653	315.066	93.75
21:22:55.230	26.56	-0.17736	314.924	93.75
21:22:55.240	26.57	-0.168032	314.779	93.75
21:22:55.250	26.58	-0.149175	314.63	93.75
21:22:55.260	26.59	-0.121527	314.478	93.75
21:22:55.270	26.6	-0.0868376	314.321	93.75
21:22:55.280	26.61	-0.0352069	314.16	93.75
21:22:55.290	26.62	0.0253315	313.995	93.75
21:22:55.300	26.63	0.0694099	313.825	93.75
21:22:55.310	26.64	0.0982222	313.651	93.75
21:22:55.320	26.65	0.139599	313.471	93.75
21:22:55.330	26.66	0.182189	313.286	93.75
21:22:55.340	26.67	0.203772	313.096	230.769
21:22:55.350	26.68	0.193469	312.9	230.769
21:22:55.360	26.69	0.171695	312.698	230.769
21:22:55.370	26.7	0.156883	312.489	230.769
21:22:55.380	26.71	0.121585	312.274	230.769
21:22:55.390	26.72	0.0717089	312.053	230.769
21:22:55.400	26.73	0.0572365	311.824	230.769
21:22:55.410	26.74	0.0238209	311.588	230.769
21:22:55.420	26.75	-0.0590205	311.344	230.769
21:22:55.430	26.76	-0.150529	311.091	230.769
21:22:55.440	26.77	-0.173785	310.829	230.769
21:22:55.450	26.78	-0.184501	310.558	230.769
21:22:55.460	26.79	-0.218638	310.276	230.769
21:22:55.470	26.8	-0.251671	309.984	230.769
21:22:55.480	26.81	-0.259794	309.681	230.769
21:22:55.490	26.82	-0.269936	309.365	230.769
21:22:55.500	26.83	-0.291577	309.037	230.769
21:22:55.510	26.84	-0.271541	308.695	230.769
21:22:55.520	26.85	-0.208809	308.341	230.769
21:22:55.530	26.86	-0.109344	307.975	230.769
21:22:55.540	26.87	-0.0581972	307.596	230.769
21:22:55.550	26.88	0.00490725	307.205	230.769
21:22:55.560	26.89	0.0671933	306.804	230.769
21:22:55.570	26.9	0.0953932	306.392	230.769
21:22:55.580	26.91	0.111605	305.972	230.769
21:22:55.590	26.92	0.131593	305.544	230.769
21:22:55.600	26.93	0.153426	305.108	1200
21:22:55.610	26.94	0.132337	304.667	1200
21:22:55.620	26.95	0.080255	304.222	1200
21:22:55.630	26.96	0.0784822	303.775	1200
21:22:55.640	26.97	0.126773	303.325	1200
21:22:55.650	26.98	0.154423	302.876	127.66
21:22:55.660	26.99	0.141799	302.427	127.66
21:22:55.670	27	0.0917172	301.982	127.66
21:22:55.680	27.01	0.0328323	301.54	127.66
21:22:55.690	27.02	-0.00445962	301.104	127.66
21:22:55.700	27.03	-0.0502107	300.675	127.66
21:22:55.710	27.04	-0.0882715	300.255	127.66
21:22:55.720	27.05	-0.0538676	299.843	127.66
21:22:55.730	27.06	0.00625891	299.443	127.66
21:22:55.740	27.07	-0.0198933	299.055	127.66
21:22:55.750	27.08	-0.0384687	298.68	127.66
21:22:55.760	27.09	-0.052145	298.319	127.66
21:22:55.770	27.1	-0.0227327	297.974	127.66
21:22:55.780	27.11	-0.018061	297.646	127.66
21:22:55.790	27.12	-0.0788885	297.335	127.66
21:22:55.800	27.13	-0.0802916	297.043	127.66
21:22:55.810	27.14	-0.0756793	296.77	127.66
21:22:55.820	27.15	-0.07861	296.517	127.66
21:22:55.830	27.16	-0.101978	296.285	127.66
21:22:55.840	27.17	-0.138645	296.075	127.66
21:22:55.850	27.18	-0.0330047	295.887	127.66
21:22:55.860	27.19	-0.0632739	295.722	127.66
21:22:55.870	27.2	-0.0944889	295.58	127.66
21:22:55.880	27.21	-0.0647391	295.462	127.66
21:22:55.890	27.22	-0.0662327	295.368	127.66
